Timestamp,Count
8562735,0
8562743,0
8562751,-1
8562758,-2
8562766,-3
8562774,-5
8562782,-7
8562790,-9
8562798,-11
8562805,-14
8562813,-14
8562821,-17
8562829,-20
8562837,-14
8562844,-27
8562852,-40
8562860,-12
8562868,4
8562876,-82
8562883,-231
8562891,-328
8562899,-346
8562907,-363
8562915,-428
8562923,-463
8562930,-359
8562938,-182
8562946,-96
8562954,-101
8562962,-96
8562969,-36
8562977,28
8562985,25
8562993,-38
8563001,-62
8563008,-8
8563016,58
8563024,56
8563032,8
8563040,-23
8563048,-36
8563055,-39
8563063,-23
8563071,-2
8563079,-3
8563087,-45
8563094,-94
8563102,-112
8563110,-78
8563118,-54
8563126,-60
8563133,-25
8563141,22
8563149,4
8563157,-35
8563165,-37
8563173,-19
8563180,-39
8563188,-109
8563196,-145
8563204,-73
8563212,-1
8563219,-14
8563227,-28
8563235,14
8563243,54
8563251,44
8563258,-16
8563266,-71
8563274,-78
8563282,-48
8563290,-16
8563298,-25
8563305,-63
8563313,-77
8563321,-21
8563329,41
8563337,-9
8563344,-177
8563352,-459
8563360,-479
8563368,563
8563376,2375
8563383,3170
8563391,1732
8563399,-845
8563407,-2354
8563415,-2024
8563423,-1009
8563430,-508
8563438,-455
8563446,-342
8563454,-227
8563462,-181
8563469,-125
8563477,-87
8563485,-70
8563493,-46
8563501,-19
8563508,-3
8563516,12
8563524,30
8563532,50
8563540,63
8563548,78
8563555,106
8563563,137
8563571,167
8563579,186
8563587,196
8563594,194
8563602,182
8563610,144
8563618,54
8563626,-84
8563633,-236
8563641,-369
8563649,-454
8563657,-476
8563665,-447
8563673,-399
8563680,-351
8563688,-297
8563696,-242
8563704,-195
8563712,-161
8563719,-134
8563727,-108
8563735,-80
8563743,-51
8563751,-18
8563758,2
8563766,2
8563774,-11
8563782,-25
8563790,-32
8563798,-33
8563805,-33
8563813,-36
8563821,-46
8563829,-61
8563837,-65
8563844,-69
8563852,-71
8563860,-66
8563868,-60
8563876,-68
8563883,-86
8563891,-86
8563899,-68
8563907,-55
8563915,-59
8563923,-68
8563930,-62
8563938,-42
8563946,-40
8563954,-53
8563962,-57
8563969,-61
8563977,-64
8563985,-69
8563993,-65
8564001,-46
8564008,-20
8564016,3
8564024,23
8564032,41
8564040,29
8564048,-18
8564055,-69
8564063,-95
8564071,-80
8564079,-53
8564087,-64
8564094,-78
8564102,-36
8564110,17
8564118,-63
8564126,-382
8564133,-314
8564141,989
8564149,2777
8564157,3026
8564165,1016
8564173,-1521
8564180,-2440
8564188,-1667
8564196,-703
8564204,-476
8564212,-517
8564219,-379
8564227,-248
8564235,-190
8564243,-129
8564251,-84
8564258,-50
8564266,-26
8564274,-12
8564282,-3
8564290,5
8564298,12
8564305,19
8564313,33
8564321,69
8564329,113
8564337,143
8564344,156
8564352,176
8564360,208
8564368,231
8564376,214
8564383,149
8564391,43
8564399,-110
8564407,-294
8564415,-439
8564423,-507
8564430,-497
8564438,-445
8564446,-380
8564454,-316
8564462,-252
8564469,-207
8564477,-179
8564485,-150
8564493,-111
8564501,-75
8564508,-55
8564516,-52
8564524,-51
8564532,-32
8564540,-15
8564548,-12
8564555,-18
8564563,-25
8564571,-23
8564579,-22
8564587,-23
8564594,-31
8564602,-38
8564610,-54
8564618,-65
8564626,-65
8564633,-55
8564641,-48
8564649,-52
8564657,-61
8564665,-63
8564673,-54
8564680,-55
8564688,-66
8564696,-69
8564704,-60
8564712,-47
8564719,-36
8564727,-40
8564735,-58
8564743,-74
8564751,-83
8564758,-67
8564766,-29
8564774,9
8564782,30
8564790,26
8564798,-5
8564805,-44
8564813,-75
8564821,-93
8564829,-101
8564837,-88
8564844,-78
8564852,-56
8564860,-12
8564868,10
8564876,-94
8564883,-396
8564891,-276
8564899,1051
8564907,2770
8564915,2916
8564923,880
8564930,-1570
8564938,-2395
8564946,-1590
8564954,-651
8564962,-430
8564969,-464
8564977,-337
8564985,-225
8564993,-173
8565001,-122
8565008,-91
8565016,-66
8565024,-56
8565032,-55
8565040,-43
8565048,-23
8565055,1
8565063,17
8565071,48
8565079,81
8565087,109
8565094,132
8565102,149
8565110,174
8565118,189
8565126,177
8565133,149
8565141,109
8565149,29
8565157,-108
8565165,-269
8565173,-407
8565180,-468
8565188,-461
8565196,-412
8565204,-356
8565212,-296
8565219,-241
8565227,-196
8565235,-162
8565243,-135
8565251,-116
8565258,-96
8565266,-77
8565274,-58
8565282,-44
8565290,-35
8565298,-29
8565305,-19
8565313,-14
8565321,-22
8565329,-30
8565337,-20
8565344,-12
8565352,-16
8565360,-38
8565368,-61
8565376,-70
8565383,-68
8565391,-62
8565399,-64
8565407,-57
8565415,-40
8565423,-24
8565430,-24
8565438,-36
8565446,-53
8565454,-68
8565462,-75
8565469,-74
8565477,-61
8565485,-50
8565493,-47
8565501,-52
8565508,-56
8565516,-59
8565524,-55
8565532,-57
8565540,-69
8565548,-88
8565555,-87
8565563,-56
8565571,-6
8565579,28
8565587,41
8565594,30
8565602,-7
8565610,-68
8565618,-109
8565626,-128
8565633,-107
8565641,-80
8565649,-72
8565657,-46
8565665,-1
8565673,-8
8565680,-211
8565688,-479
8565696,115
8565704,1876
8565712,3234
8565719,2404
8565727,-191
8565735,-2245
8565743,-2333
8565751,-1285
8565758,-609
8565766,-560
8565774,-495
8565782,-301
8565790,-180
8565798,-99
8565805,-64
8565813,-76
8565821,-91
8565829,-86
8565837,-45
8565844,16
8565852,43
8565860,39
8565868,47
8565876,78
8565883,97
8565891,121
8565899,155
8565907,188
8565915,209
8565923,211
8565930,206
8565938,188
8565946,125
8565954,1
8565962,-174
8565969,-348
8565977,-464
8565985,-503
8565993,-480
8566001,-438
8566008,-386
8566016,-300
8566024,-237
8566032,-239
8566040,-238
8566048,-177
8566055,-96
8566063,-50
8566071,-51
8566079,-62
8566087,-56
8566094,-46
8566102,-57
8566110,-54
8566118,-12
8566126,8
8566133,-15
8566141,-44
8566149,-41
8566157,-19
8566165,-12
8566173,-39
8566180,-74
8566188,-91
8566196,-94
8566204,-89
8566212,-72
8566219,-50
8566227,-31
8566235,-24
8566243,-33
8566251,-63
8566258,-79
8566266,-61
8566274,-59
8566282,-86
8566290,-86
8566298,-45
8566305,-14
8566313,-39
8566321,-67
8566329,-42
8566337,28
8566344,60
8566352,38
8566360,13
8566368,-2
8566376,-34
8566383,-76
8566391,-96
8566399,-86
8566407,-82
8566415,-101
8566423,-90
8566430,-18
8566438,53
8566446,-93
8566454,-490
8566462,-204
8566469,1455
8566477,3133
8566485,2775
8566493,330
8566501,-2010
8566508,-2424
8566516,-1399
8566524,-562
8566532,-452
8566540,-439
8566548,-295
8566555,-216
8566563,-148
8566571,-69
8566579,-49
8566587,-52
8566594,-57
8566602,-39
8566610,14
8566618,57
8566626,42
8566633,26
8566641,53
8566649,93
8566657,120
8566665,148
8566673,199
8566680,261
8566688,301
8566696,297
8566704,244
8566712,149
8566719,12
8566727,-164
8566735,-352
8566743,-496
8566751,-547
8566758,-515
8566766,-447
8566774,-379
8566782,-314
8566790,-239
8566798,-178
8566805,-157
8566813,-150
8566821,-127
8566829,-76
8566837,-45
8566844,-42
8566852,-50
8566860,-45
8566868,-20
8566876,17
8566883,24
8566891,-10
8566899,-50
8566907,-52
8566915,-29
8566923,-26
8566930,-47
8566938,-59
8566946,-55
8566954,-54
8566962,-62
8566969,-63
8566977,-59
8566985,-63
8566993,-55
8567001,-46
8567008,-50
8567016,-64
8567024,-56
8567032,-20
8567040,0
8567048,-16
8567055,-49
8567063,-76
8567071,-91
8567079,-86
8567087,-52
8567094,10
8567102,54
8567110,42
8567118,-2
8567126,-49
8567133,-84
8567141,-93
8567149,-84
8567157,-74
8567165,-74
8567173,-91
8567180,-75
8567188,-16
8567196,12
8567204,-160
8567212,-467
8567219,-1
8567227,1732
8567235,3263
8567243,2625
8567251,10
8567258,-2232
8567266,-2437
8567274,-1318
8567282,-522
8567290,-478
8567298,-483
8567305,-323
8567313,-216
8567321,-139
8567329,-78
8567337,-58
8567344,-45
8567352,-49
8567360,-62
8567368,-65
8567376,-44
8567383,-15
8567391,16
8567399,46
8567407,70
8567415,102
8567423,146
8567430,195
8567438,227
8567446,231
8567454,199
8567462,149
8567469,77
8567477,-31
8567485,-176
8567493,-322
8567501,-426
8567508,-464
8567516,-451
8567524,-403
8567532,-346
8567540,-297
8567548,-265
8567555,-231
8567563,-189
8567571,-136
8567579,-88
8567587,-67
8567594,-74
8567602,-78
8567610,-63
8567618,-42
8567626,-23
8567633,-26
8567641,-43
8567649,-53
8567657,-48
8567665,-33
8567673,-36
8567680,-58
8567688,-66
8567696,-38
8567704,0
8567712,-3
8567719,-47
8567727,-87
8567735,-80
8567743,-18
8567751,61
8567758,127
8567766,150
8567774,123
8567782,74
8567790,44
8567798,40
8567805,66
8567813,96
8567821,92
8567829,47
8567837,-26
8567844,-93
8567852,-119
8567860,-111
8567868,-98
8567876,-99
8567883,-121
8567891,-100
8567899,-29
8567907,12
8567915,-148
8567923,-418
8567930,53
8567938,1626
8567946,2896
8567954,2166
8567962,-234
8567969,-2137
8567977,-2168
8567985,-1119
8567993,-449
8568001,-427
8568008,-419
8568016,-276
8568024,-205
8568032,-163
8568040,-115
8568048,-76
8568055,-41
8568063,-20
8568071,-4
8568079,18
8568087,39
8568094,64
8568102,87
8568110,105
8568118,116
8568126,130
8568133,148
8568141,172
8568149,176
8568157,161
8568165,134
8568173,90
8568180,15
8568188,-109
8568196,-262
8568204,-403
8568212,-488
8568219,-510
8568227,-483
8568235,-436
8568243,-374
8568251,-314
8568258,-255
8568266,-204
8568274,-156
8568282,-120
8568290,-87
8568298,-54
8568305,-31
8568313,-23
8568321,-19
8568329,-13
8568337,-7
8568344,-7
8568352,-18
8568360,-23
8568368,-28
8568376,-35
8568383,-44
8568391,-46
8568399,-37
8568407,-35
8568415,-44
8568423,-62
8568430,-71
8568438,-68
8568446,-59
8568454,-57
8568462,-55
8568469,-47
8568477,-38
8568485,-31
8568493,-44
8568501,-67
8568508,-74
8568516,-50
8568524,-1
8568532,35
8568540,31
8568548,-11
8568555,-63
8568563,-90
8568571,-97
8568579,-90
8568587,-75
8568594,-85
8568602,-81
8568610,-41
8568618,0
8568626,-80
8568633,-365
8568641,-219
8568649,1088
8568657,2660
8568665,2610
8568673,538
8568680,-1714
8568688,-2279
8568696,-1370
8568704,-503
8568712,-378
8568719,-422
8568727,-276
8568735,-164
8568743,-120
8568751,-82
8568758,-60
8568766,-38
8568774,-18
8568782,-4
8568790,3
8568798,9
8568805,25
8568813,51
8568821,69
8568829,87
8568837,105
8568844,136
8568852,162
8568860,178
8568868,185
8568876,181
8568883,153
8568891,95
8568899,-3
8568907,-148
8568915,-305
8568923,-430
8568930,-476
8568938,-456
8568946,-400
8568954,-341
8568962,-285
8568969,-235
8568977,-196
8568985,-158
8568993,-117
8569001,-84
8569008,-68
8569016,-65
8569024,-59
8569032,-48
8569040,-30
8569048,-23
8569055,-29
8569063,-31
8569071,-30
8569079,-27
8569087,-34
8569094,-46
8569102,-50
8569110,-53
8569118,-64
8569126,-73
8569133,-75
8569141,-71
8569149,-64
8569157,-59
8569165,-60
8569173,-64
8569180,-69
8569188,-64
8569196,-51
8569204,-49
8569212,-65
8569219,-74
8569227,-73
8569235,-62
8569243,-40
8569251,-7
8569258,27
8569266,41
8569274,19
8569282,-33
8569290,-83
8569298,-101
8569305,-94
8569313,-75
8569321,-80
8569329,-86
8569337,-47
8569344,5
8569352,-45
8569360,-323
8569368,-333
8569376,775
8569383,2460
8569391,2845
8569399,1068
8569407,-1373
8569415,-2364
8569423,-1651
8569430,-661
8569438,-376
8569446,-418
8569454,-302
8569462,-190
8569469,-161
8569477,-117
8569485,-74
8569493,-41
8569501,-28
8569508,-22
8569516,-6
8569524,11
8569532,20
8569540,34
8569548,53
8569555,74
8569563,99
8569571,134
8569579,166
8569587,180
8569594,174
8569602,156
8569610,127
8569618,84
8569626,1
8569633,-123
8569641,-272
8569649,-399
8569657,-467
8569665,-472
8569673,-430
8569680,-366
8569688,-302
8569696,-252
8569704,-208
8569712,-163
8569719,-127
8569727,-94
8569735,-63
8569743,-40
8569751,-27
8569758,-27
8569766,-28
8569774,-32
8569782,-37
8569790,-41
8569798,-40
8569805,-30
8569813,-28
8569821,-39
8569829,-57
8569837,-61
8569844,-59
8569852,-69
8569860,-77
8569868,-74
8569876,-61
8569883,-55
8569891,-51
8569899,-50
8569907,-51
8569915,-57
8569923,-68
8569930,-77
8569938,-74
8569946,-64
8569954,-46
8569962,-9
8569969,24
8569977,32
8569985,7
8569993,-38
8570001,-74
8570008,-92
8570016,-96
8570024,-79
8570032,-68
8570040,-71
8570048,-47
8570055,9
8570063,-5
8570071,-251
8570079,-379
8570087,482
8570094,2094
8570102,2737
8570110,1314
8570118,-1036
8570126,-2220
8570133,-1695
8570141,-693
8570149,-316
8570157,-368
8570165,-304
8570173,-188
8570180,-145
8570188,-106
8570196,-72
8570204,-52
8570212,-39
8570219,-42
8570227,-32
8570235,-10
8570243,15
8570251,38
8570258,53
8570266,72
8570274,99
8570282,129
8570290,149
8570298,164
8570305,160
8570313,142
8570321,110
8570329,51
8570337,-36
8570344,-151
8570352,-279
8570360,-382
8570368,-436
8570376,-439
8570383,-409
8570391,-359
8570399,-300
8570407,-241
8570415,-196
8570423,-158
8570430,-122
8570438,-86
8570446,-61
8570454,-48
8570462,-33
8570469,-19
8570477,-2
8570485,0
8570493,-10
8570501,-24
8570508,-25
8570516,-18
8570524,-19
8570532,-41
8570540,-59
8570548,-57
8570555,-39
8570563,-34
8570571,-54
8570579,-78
8570587,-90
8570594,-78
8570602,-68
8570610,-70
8570618,-70
8570626,-64
8570633,-64
8570641,-76
8570649,-83
8570657,-65
8570665,-19
8570673,32
8570680,53
8570688,23
8570696,-32
8570704,-79
8570712,-95
8570719,-88
8570727,-81
8570735,-80
8570743,-87
8570751,-65
8570758,-18
8570766,2
8570774,-144
8570782,-411
8570790,-26
8570798,1466
8570805,2808
8570813,2266
8570821,-16
8570829,-1975
8570837,-2134
8570844,-1128
8570852,-425
8570860,-393
8570868,-394
8570876,-250
8570883,-175
8570891,-136
8570899,-89
8570907,-52
8570915,-23
8570923,-22
8570930,-26
8570938,-16
8570946,6
8570954,18
8570962,22
8570969,40
8570977,76
8570985,125
8570993,157
8571001,172
8571008,179
8571016,178
8571024,158
8571032,116
8571040,53
8571048,-43
8571055,-175
8571063,-309
8571071,-398
8571079,-423
8571087,-398
8571094,-346
8571102,-281
8571110,-223
8571118,-189
8571126,-159
8571133,-123
8571141,-76
8571149,-38
8571157,-29
8571165,-43
8571173,-58
8571180,-66
8571188,-65
8571196,-64
8571204,-63
8571212,-64
8571219,-71
8571227,-77
8571235,-82
8571243,-85
8571251,-87
8571258,-85
8571266,-83
8571274,-86
8571282,-91
8571290,-89
8571298,-87
8571305,-88
8571313,-96
8571321,-94
8571329,-88
8571337,-93
8571344,-108
8571352,-112
8571360,-97
8571368,-92
8571376,-86
8571383,-66
8571391,-23
8571399,24
8571407,38
8571415,21
8571423,-6
8571430,-23
8571438,-35
8571446,-47
8571454,-52
8571462,-47
8571469,-43
8571477,-11
8571485,31
8571493,48
8571501,-62
8571508,-319
8571516,-13
8571524,1415
8571532,2825
8571540,2435
8571548,184
8571555,-1930
8571563,-2254
8571571,-1269
8571579,-477
8571587,-390
8571594,-402
8571602,-264
8571610,-175
8571618,-110
8571626,-56
8571633,-46
8571641,-50
8571649,-42
8571657,-19
8571665,-1
8571673,4
8571680,5
8571688,0
8571696,1
8571704,29
8571712,81
8571719,136
8571727,163
8571735,154
8571743,148
8571751,147
8571758,123
8571766,60
8571774,-44
8571782,-184
8571790,-329
8571798,-422
8571805,-457
8571813,-427
8571821,-360
8571829,-293
8571837,-239
8571844,-195
8571852,-159
8571860,-130
8571868,-117
8571876,-112
8571883,-101
8571891,-77
8571899,-56
8571907,-45
8571915,-44
8571923,-46
8571930,-55
8571938,-73
8571946,-76
8571954,-63
8571962,-40
8571969,-33
8571977,-41
8571985,-56
8571993,-64
8572001,-62
8572008,-59
8572016,-59
8572024,-62
8572032,-74
8572040,-91
8572048,-91
8572055,-59
8572063,-9
8572071,14
8572079,-3
8572087,-35
8572094,-54
8572102,-59
8572110,-70
8572118,-95
8572126,-72
8572133,15
8572141,94
8572149,82
8572157,0
8572165,-67
8572173,-68
8572180,-51
8572188,-62
8572196,-89
8572204,-88
8572212,-63
8572219,-58
8572227,-30
8572235,35
8572243,73
8572251,-111
8572258,-421
8572266,22
8572274,1602
8572282,2886
8572290,2164
8572298,-222
8572305,-2089
8572313,-2090
8572321,-1037
8572329,-380
8572337,-365
8572344,-369
8572352,-260
8572360,-213
8572368,-160
8572376,-82
8572383,-22
8572391,3
8572399,-13
8572407,-21
8572415,3
8572423,48
8572430,75
8572438,74
8572446,61
8572454,77
8572462,116
8572469,152
8572477,170
8572485,170
8572493,164
8572501,142
8572508,94
8572516,19
8572524,-92
8572532,-229
8572540,-364
8572548,-472
8572555,-513
8572563,-489
8572571,-430
8572579,-368
8572587,-309
8572594,-256
8572602,-213
8572610,-184
8572618,-149
8572626,-111
8572633,-79
8572641,-59
8572649,-47
8572657,-25
8572665,-6
8572673,0
8572680,-7
8572688,-19
8572696,-28
8572704,-35
8572712,-37
8572719,-37
8572727,-45
8572735,-54
8572743,-62
8572751,-74
8572758,-100
8572766,-105
8572774,-77
8572782,-25
8572790,7
8572798,-6
8572805,-47
8572813,-74
8572821,-76
8572829,-58
8572837,-26
8572844,8
8572852,34
8572860,40
8572868,15
8572876,-23
8572883,-55
8572891,-77
8572899,-81
8572907,-69
8572915,-79
8572923,-79
8572930,-39
8572938,-1
8572946,-101
8572954,-393
8572962,-165
8572969,1237
8572977,2732
8572985,2468
8572993,290
8573001,-1839
8573008,-2210
8573016,-1243
8573024,-453
8573032,-381
8573040,-413
8573048,-269
8573055,-167
8573063,-116
8573071,-71
8573079,-58
8573087,-46
8573094,-25
8573102,-12
8573110,-14
8573118,-16
8573126,-5
8573133,18
8573141,39
8573149,44
8573157,46
8573165,85
8573173,152
8573180,200
8573188,184
8573196,112
8573204,34
8573212,-10
8573219,-65
8573227,-174
8573235,-319
8573243,-422
8573251,-450
8573258,-404
8573266,-326
8573274,-256
8573282,-216
8573290,-195
8573298,-177
8573305,-139
8573313,-89
8573321,-53
8573329,-43
8573337,-41
8573344,-38
8573352,-28
8573360,-21
8573368,-18
8573376,-22
8573383,-29
8573391,-38
8573399,-46
8573407,-46
8573415,-37
8573423,-35
8573430,-39
8573438,-41
8573446,-35
8573454,-24
8573462,-37
8573469,-67
8573477,-82
8573485,-71
8573493,-56
8573501,-53
8573508,-67
8573516,-79
8573524,-76
8573532,-57
8573540,-24
8573548,14
8573555,37
8573563,32
8573571,10
8573579,-27
8573587,-84
8573594,-130
8573602,-123
8573610,-68
8573618,-29
8573626,-13
8573633,1
8573641,15
8573649,-46
8573657,-295
8573665,-158
8573673,1046
8573680,2491
8573688,2414
8573696,456
8573704,-1647
8573712,-2138
8573719,-1256
8573727,-448
8573735,-359
8573743,-406
8573751,-252
8573758,-148
8573766,-109
8573774,-79
8573782,-95
8573790,-129
8573798,-116
8573805,-43
8573813,43
8573821,61
8573829,16
8573837,-28
8573844,-36
8573852,-11
8573860,29
8573868,68
8573876,78
8573883,76
8573891,91
8573899,114
8573907,114
8573915,79
8573923,-7
8573930,-129
8573938,-259
8573946,-353
8573954,-386
8573962,-372
8573969,-334
8573977,-279
8573985,-226
8573993,-184
8574001,-155
8574008,-132
8574016,-109
8574024,-85
8574032,-61
8574040,-41
8574048,-27
8574055,-20
8574063,-21
8574071,-23
8574079,-25
8574087,-30
8574094,-26
8574102,-22
8574110,-19
8574118,-18
8574126,-23
8574133,-26
8574141,-33
8574149,-48
8574157,-60
8574165,-62
8574173,-65
8574180,-76
8574188,-86
8574196,-91
8574204,-89
8574212,-91
8574219,-95
8574227,-94
8574235,-78
8574243,-78
8574251,-96
8574258,-98
8574266,-77
8574274,-35
8574282,2
8574290,18
8574298,14
8574305,-18
8574313,-55
8574321,-77
8574329,-88
8574337,-95
8574344,-92
8574352,-62
8574360,14
8574368,85
8574376,86
8574383,-106
8574391,-344
8574399,196
8574407,1705
8574415,2719
8574423,1783
8574430,-517
8574438,-2080
8574446,-1873
8574454,-848
8574462,-325
8574469,-361
8574477,-331
8574485,-191
8574493,-129
8574501,-79
8574508,-43
8574516,-36
8574524,-38
8574532,-37
8574540,-33
8574548,-33
8574555,-44
8574563,-35
8574571,-5
8574579,39
8574587,76
8574594,99
8574602,112
8574610,115
8574618,110
8574626,100
8574633,90
8574641,62
8574649,4
8574657,-80
8574665,-186
8574673,-288
8574680,-354
8574688,-372
8574696,-350
8574704,-315
8574712,-270
8574719,-233
8574727,-200
8574735,-167
8574743,-135
8574751,-103
8574758,-76
8574766,-57
8574774,-28
8574782,-14
8574790,-16
8574798,-30
8574805,-42
8574813,-49
8574821,-51
8574829,-62
8574837,-64
8574844,-59
8574852,-50
8574860,-47
8574868,-43
8574876,-38
8574883,-30
8574891,-32
8574899,-44
8574907,-51
8574915,-58
8574923,-77
8574930,-90
8574938,-71
8574946,-30
8574954,-8
8574962,-26
8574969,-64
8574977,-93
8574985,-110
8574993,-104
8575001,-77
8575008,-30
8575016,5
8575024,17
8575032,6
8575040,-27
8575048,-71
8575055,-107
8575063,-115
8575071,-98
8575079,-96
8575087,-99
8575094,-68
8575102,-8
8575110,21
8575118,-159
8575126,-274
8575133,512
8575141,2035
8575149,2659
8575157,1303
8575165,-967
8575173,-2116
8575180,-1601
8575188,-634
8575196,-297
8575204,-344
8575212,-244
8575219,-141
8575227,-144
8575235,-119
8575243,-63
8575251,-22
8575258,-30
8575266,-44
8575274,-33
8575282,-4
8575290,15
8575298,27
8575305,33
8575313,19
8575321,-27
8575329,-65
8575337,-65
8575344,-37
8575352,-10
8575360,12
8575368,21
8575376,22
8575383,-1
8575391,-66
8575399,-177
8575407,-285
8575415,-340
8575423,-335
8575430,-304
8575438,-268
8575446,-241
8575454,-213
8575462,-175
8575469,-133
8575477,-79
8575485,-34
8575493,-27
8575501,-43
8575508,-57
8575516,-59
8575524,-62
8575532,-66
8575540,-63
8575548,-53
8575555,-57
8575563,-71
8575571,-72
8575579,-56
8575587,-38
8575594,-23
8575602,-9
8575610,-9
8575618,-25
8575626,-36
8575633,-46
8575641,-60
8575649,-73
8575657,-70
8575665,-62
8575673,-47
8575680,-19
8575688,18
8575696,47
8575704,36
8575712,-4
8575719,-36
8575727,-37
8575735,-19
8575743,11
8575751,33
8575758,9
8575766,-48
8575774,-86
8575782,-95
8575790,-101
8575798,-112
8575805,-104
8575813,-88
8575821,-69
8575829,-56
8575837,-27
8575844,-75
8575852,-342
8575860,-237
8575868,1014
8575876,2556
8575883,2517
8575891,481
8575899,-1728
8575907,-2246
8575915,-1307
8575923,-459
8575930,-363
8575938,-415
8575946,-259
8575954,-132
8575962,-80
8575969,-55
8575977,-51
8575985,-26
8575993,10
8576001,34
8576008,30
8576016,7
8576024,2
8576032,21
8576040,45
8576048,66
8576055,86
8576063,120
8576071,150
8576079,161
8576087,155
8576094,138
8576102,96
8576110,21
8576118,-80
8576126,-199
8576133,-327
8576141,-430
8576149,-478
8576157,-455
8576165,-400
8576173,-355
8576180,-312
8576188,-254
8576196,-191
8576204,-138
8576212,-121
8576219,-111
8576227,-77
8576235,-40
8576243,-23
8576251,-13
8576258,-4
8576266,-18
8576274,-44
8576282,-58
8576290,-57
8576298,-51
8576305,-57
8576313,-74
8576321,-75
8576329,-69
8576337,-65
8576344,-64
8576352,-68
8576360,-80
8576368,-94
8576376,-84
8576383,-50
8576391,-12
8576399,14
8576407,12
8576415,-28
8576423,-85
8576430,-129
8576438,-135
8576446,-110
8576454,-78
8576462,-72
8576469,-72
8576477,-32
8576485,18
8576493,-89
8576501,-294
8576508,130
8576516,1468
8576524,2479
8576532,1723
8576540,-433
8576548,-2057
8576555,-1976
8576563,-951
8576571,-288
8576579,-227
8576587,-225
8576594,-138
8576602,-104
8576610,-87
8576618,-59
8576626,-27
8576633,18
8576641,38
8576649,29
8576657,6
8576665,-2
8576673,11
8576680,38
8576688,76
8576696,117
8576704,144
8576712,141
8576719,118
8576727,92
8576735,85
8576743,100
8576751,102
8576758,28
8576766,-150
8576774,-362
8576782,-502
8576790,-521
8576798,-460
8576805,-379
8576813,-314
8576821,-252
8576829,-199
8576837,-157
8576844,-132
8576852,-122
8576860,-110
8576868,-100
8576876,-94
8576883,-80
8576891,-54
8576899,-24
8576907,4
8576915,14
8576923,-9
8576930,-39
8576938,-57
8576946,-53
8576954,-46
8576962,-35
8576969,-19
8576977,5
8576985,17
8576993,2
8577001,-20
8577008,-39
8577016,-56
8577024,-60
8577032,-41
8577040,1
8577048,17
8577055,0
8577063,-20
8577071,-29
8577079,-47
8577087,-70
8577094,-72
8577102,-47
8577110,-52
8577118,-85
8577126,-82
8577133,-23
8577141,-45
8577149,-272
8577157,-203
8577165,868
8577173,2294
8577180,2399
8577188,630
8577196,-1514
8577204,-2207
8577212,-1406
8577219,-468
8577227,-217
8577235,-285
8577243,-240
8577251,-163
8577258,-156
8577266,-182
8577274,-227
8577282,-245
8577290,-207
8577298,-116
8577305,-14
8577313,48
8577321,71
8577329,102
8577337,173
8577344,259
8577352,238
8577360,121
8577368,69
8577376,166
8577383,306
8577391,312
8577399,141
8577407,-44
8577415,-111
8577423,-187
8577430,-350
8577438,-437
8577446,-396
8577454,-373
8577462,-382
8577469,-342
8577477,-238
8577485,-176
8577493,-200
8577501,-187
8577508,-55
8577516,52
8577524,-6
8577532,-141
8577540,-218
8577548,-230
8577555,-206
8577563,-126
8577571,2
8577579,44
8577587,-41
8577594,-130
8577602,-164
8577610,-176
8577618,-147
8577626,-59
8577633,57
8577641,124
8577649,58
8577657,-91
8577665,-143
8577673,-92
8577680,-30
8577688,22
8577696,23
8577704,-38
8577712,-58
8577719,-26
8577727,-34
8577735,-61
8577743,-44
8577751,-57
8577758,-218
8577766,-344
8577774,308
8577782,1864
8577790,2873
8577798,1904
8577805,-468
8577813,-2146
8577821,-2013
8577829,-951
8577837,-299
8577844,-299
8577852,-366
8577860,-295
8577868,-210
8577876,-125
8577883,-87
8577891,-107
8577899,-86
8577907,28
8577915,162
8577923,196
8577930,131
8577938,101
8577946,118
8577954,52
8577962,-63
8577969,-33
8577977,107
8577985,140
8577993,46
8578001,55
8578008,236
8578016,331
8578024,133
8578032,-201
8578040,-391
8578048,-437
8578055,-492
8578063,-549
8578071,-530
8578079,-410
8578087,-254
8578094,-150
8578102,-112
8578110,-93
8578118,-52
8578126,-7
8578133,-11
8578141,-40
8578149,-51
8578157,-37
8578165,-9
8578173,19
8578180,25
8578188,2
8578196,-39
8578204,-59
8578212,-27
8578219,17
8578227,-4
8578235,-101
8578243,-177
8578251,-164
8578258,-85
8578266,-3
8578274,38
8578282,40
8578290,23
8578298,-1
8578305,-14
8578313,-32
8578321,-52
8578329,-52
8578337,-54
8578344,-61
8578352,-67
8578360,-88
8578368,-233
8578376,-461
8578383,-21
8578391,1476
8578399,2766
8578407,2191
8578415,-76
8578423,-2005
8578430,-2159
8578438,-1175
8578446,-476
8578454,-403
8578462,-377
8578469,-242
8578477,-157
8578485,-69
8578493,18
8578501,49
8578508,41
8578516,19
8578524,5
8578532,-5
8578540,-18
8578548,-8
8578555,25
8578563,64
8578571,105
8578579,153
8578587,181
8578594,171
8578602,165
8578610,193
8578618,206
8578626,159
8578633,49
8578641,-94
8578649,-236
8578657,-345
8578665,-411
8578673,-420
8578680,-384
8578688,-326
8578696,-279
8578704,-249
8578712,-220
8578719,-165
8578727,-107
8578735,-77
8578743,-82
8578751,-77
8578758,-75
8578766,-95
8578774,-110
8578782,-105
8578790,-92
8578798,-86
8578805,-96
8578813,-108
8578821,-89
8578829,-55
8578837,-47
8578844,-79
8578852,-148
8578860,-221
8578868,-285
8578876,-331
8578883,-385
8578891,-448
8578899,-557
8578907,-743
8578915,-982
8578923,-1188
8578930,-1330
8578938,-1487
8578946,-1704
8578954,-1800
8578962,-1620
8578969,-1245
8578977,-999
8578985,-896
8578993,-34
8579001,2026
8579008,3752
8579016,3210
8579024,653
8579032,-1556
8579040,-1759
8579048,-664
8579055,101
8579063,127
8579071,118
8579079,298
8579087,415
8579094,467
8579102,499
8579110,524
8579118,543
8579126,521
8579133,489
8579141,489
8579149,510
8579157,491
8579165,439
8579173,409
8579180,444
8579188,547
8579196,647
8579204,676
8579212,690
8579219,673
8579227,569
8579235,382
8579243,184
8579251,15
8579258,-121
8579266,-240
8579274,-362
8579282,-416
8579290,-382
8579298,-314
8579305,-216
8579313,-96
8579321,3
8579329,32
8579337,-22
8579344,-127
8579352,-147
8579360,-29
8579368,84
8579376,133
8579383,146
8579391,128
8579399,85
8579407,22
8579415,-47
8579423,-71
8579430,-5
8579438,58
8579446,34
8579454,-19
8579462,-51
8579469,-42
8579477,-132
8579485,-238
8579493,400
8579501,1909
8579508,2743
8579516,1481
8579524,-1074
8579532,-2618
8579540,-2139
8579548,-810
8579555,-153
8579563,-202
8579571,-178
8579579,-12
8579587,12
8579594,-64
8579602,-109
8579610,-80
8579618,-10
8579626,36
8579633,35
8579641,35
8579649,45
8579657,71
8579665,118
8579673,149
8579680,163
8579688,203
8579696,254
8579704,249
8579712,167
8579719,70
8579727,26
8579735,-42
8579743,-216
8579751,-464
8579758,-672
8579766,-786
8579774,-819
8579782,-792
8579790,-723
8579798,-628
8579805,-536
8579813,-441
8579821,-318
8579829,-203
8579837,-139
8579844,-91
8579852,-51
8579860,-14
8579868,28
8579876,76
8579883,102
8579891,94
8579899,51
8579907,3
8579915,-23
8579923,-31
8579930,-35
8579938,-26
8579946,-19
8579954,-22
8579962,-8
8579969,22
8579977,31
8579985,5
8579993,-45
8580001,-73
8580008,-49
8580016,-3
8580024,4
8580032,-42
8580040,-82
8580048,-77
8580055,-58
8580063,-74
8580071,-108
8580079,-106
8580087,-58
8580094,-21
8580102,-26
8580110,-62
8580118,-78
8580126,-55
8580133,-10
8580141,8
8580149,-23
8580157,-79
8580165,-98
8580173,-65
8580180,-14
8580188,19
8580196,14
8580204,-5
8580212,-7
8580219,5
8580227,13
8580235,13
8580243,-12
8580251,-58
8580258,-99
8580266,-94
8580274,-46
8580282,8
8580290,32
8580298,38
8580305,57
8580313,35
8580321,-36
8580329,-110
8580337,-142
8580344,-129
8580352,-91
8580360,-39
8580368,-33
8580376,-74
8580383,-79
8580391,-48
8580399,-95
8580407,-361
8580415,-324
8580423,917
8580430,2732
8580438,3122
8580446,1205
8580454,-1449
8580462,-2617
8580469,-1964
8580477,-924
8580485,-573
8580493,-598
8580501,-471
8580508,-307
8580516,-215
8580524,-170
8580532,-159
8580540,-118
8580548,-65
8580555,-38
8580563,-43
8580571,-53
8580579,-34
8580587,-11
8580594,-7
8580602,-14
8580610,-10
8580618,14
8580626,45
8580633,69
8580641,85
8580649,91
8580657,74
8580665,34
8580673,-1
8580680,-20
8580688,-61
8580696,-145
8580704,-252
8580712,-347
8580719,-385
8580727,-370
8580735,-327
8580743,-264
8580751,-186
8580758,-109
8580766,-48
8580774,0
8580782,50
8580790,79
8580798,50
8580805,-15
8580813,-34
8580821,-20
8580829,-27
8580837,-74
8580844,-94
8580852,-42
8580860,25
8580868,51
8580876,58
8580883,66
8580891,45
8580899,-29
8580907,-94
8580915,-106
8580923,-88
8580930,-69
8580938,-57
8580946,-42
8580954,-29
8580962,-19
8580969,-5
8580977,-4
8580985,-31
8580993,-68
8581001,-68
8581008,-25
8581016,8
8581024,17
8581032,-13
8581040,-112
8581048,-234
8581055,-273
8581063,-212
8581071,-142
8581079,-139
8581087,-177
8581094,-133
8581102,-40
8581110,-33
8581118,-297
8581126,-569
8581133,191
8581141,2181
8581149,3552
8581157,2450
8581165,-464
8581173,-2578
8581180,-2486
8581188,-1269
8581196,-569
8581204,-552
8581212,-499
8581219,-332
8581227,-249
8581235,-181
8581243,-111
8581251,-59
8581258,-17
8581266,-4
8581274,-5
8581282,-5
8581290,9
8581298,43
8581305,71
8581313,71
8581321,68
8581329,81
8581337,123
8581344,174
8581352,225
8581360,252
8581368,250
8581376,222
8581383,179
8581391,86
8581399,-83
8581407,-278
8581415,-415
8581423,-462
8581430,-437
8581438,-381
8581446,-310
8581454,-222
8581462,-140
8581469,-88
8581477,-83
8581485,-115
8581493,-137
8581501,-130
8581508,-107
8581516,-86
8581524,-77
8581532,-71
8581540,-46
8581548,-24
8581555,-34
8581563,-80
8581571,-131
8581579,-144
8581587,-118
8581594,-92
8581602,-85
8581610,-97
8581618,-87
8581626,-52
8581633,-24
8581641,-42
8581649,-97
8581657,-129
8581665,-94
8581673,-41
8581680,-40
8581688,-75
8581696,-64
8581704,-13
8581712,-11
8581719,-76
8581727,-135
8581735,-123
8581743,-66
8581751,-30
8581758,-17
8581766,3
8581774,14
8581782,-2
8581790,-19
8581798,0
8581805,28
8581813,8
8581821,-61
8581829,-119
8581837,-139
8581844,-113
8581852,-76
8581860,-58
8581868,-165
8581876,-377
8581883,50
8581891,1659
8581899,3200
8581907,2737
8581915,227
8581923,-2131
8581930,-2529
8581938,-1481
8581946,-611
8581954,-478
8581962,-458
8581969,-284
8581977,-189
8581985,-162
8581993,-113
8582001,-63
8582008,-30
8582016,-37
8582024,-45
8582032,-21
8582040,15
8582048,31
8582055,32
8582063,67
8582071,118
8582079,140
8582087,137
8582094,152
8582102,212
8582110,268
8582118,274
8582126,221
8582133,153
8582141,58
8582149,-92
8582157,-273
8582165,-428
8582173,-521
8582180,-538
8582188,-490
8582196,-407
8582204,-317
8582212,-240
8582219,-179
8582227,-114
8582235,-61
8582243,-49
8582251,-73
8582258,-91
8582266,-81
8582274,-52
8582282,-33
8582290,-34
8582298,-42
8582305,-43
8582313,-29
8582321,-13
8582329,-25
8582337,-56
8582344,-62
8582352,-37
8582360,-29
8582368,-52
8582376,-71
8582383,-50
8582391,-19
8582399,-35
8582407,-69
8582415,-50
8582423,-9
8582430,-14
8582438,-68
8582446,-128
8582454,-131
8582462,-82
8582469,-32
8582477,3
8582485,9
8582493,-20
8582501,-62
8582508,-60
8582516,-18
8582524,43
8582532,70
8582540,42
8582548,-17
8582555,-56
8582563,-75
8582571,-74
8582579,-67
8582587,-82
8582594,-77
8582602,-40
8582610,-39
8582618,-168
8582626,-435
8582633,-214
8582641,1175
8582649,2804
8582657,2767
8582665,640
8582673,-1723
8582680,-2403
8582688,-1527
8582696,-615
8582704,-433
8582712,-470
8582719,-320
8582727,-199
8582735,-140
8582743,-87
8582751,-66
8582758,-73
8582766,-71
8582774,-51
8582782,-23
8582790,-19
8582798,-18
8582805,6
8582813,55
8582821,95
8582829,101
8582837,97
8582844,119
8582852,172
8582860,227
8582868,245
8582876,204
8582883,128
8582891,31
8582899,-105
8582907,-277
8582915,-429
8582923,-509
8582930,-537
8582938,-543
8582946,-491
8582954,-363
8582962,-215
8582969,-125
8582977,-94
8582985,-84
8582993,-81
8583001,-91
8583008,-111
8583016,-108
8583024,-70
8583032,-39
8583040,-30
8583048,-18
8583055,12
8583063,27
8583071,1
8583079,-47
8583087,-65
8583094,-49
8583102,-35
8583110,-57
8583118,-91
8583126,-105
8583133,-89
8583141,-81
8583149,-72
8583157,-63
8583165,-54
8583173,-56
8583180,-65
8583188,-71
8583196,-63
8583204,-60
8583212,-70
8583219,-85
8583227,-73
8583235,-37
8583243,1
8583251,8
8583258,-13
8583266,-39
8583274,-59
8583282,-75
8583290,-77
8583298,-56
8583305,-41
8583313,-33
8583321,6
8583329,44
8583337,-41
8583344,-319
8583352,-207
8583360,1037
8583368,2633
8583376,2732
8583383,777
8583391,-1556
8583399,-2329
8583407,-1546
8583415,-626
8583423,-390
8583430,-412
8583438,-287
8583446,-181
8583454,-139
8583462,-78
8583469,-18
8583477,19
8583485,-4
8583493,-59
8583501,-78
8583508,-37
8583516,4
8583524,19
8583532,19
8583540,41
8583548,91
8583555,146
8583563,179
8583571,190
8583579,181
8583587,161
8583594,130
8583602,88
8583610,8
8583618,-128
8583626,-291
8583633,-422
8583641,-478
8583649,-479
8583657,-448
8583665,-393
8583673,-310
8583680,-236
8583688,-218
8583696,-226
8583704,-185
8583712,-74
8583719,10
8583727,8
8583735,-36
8583743,-65
8583751,-70
8583758,-65
8583766,-47
8583774,-11
8583782,-9
8583790,-48
8583798,-73
8583805,-58
8583813,-36
8583821,-50
8583829,-73
8583837,-91
8583844,-101
8583852,-106
8583860,-101
8583868,-88
8583876,-81
8583883,-80
8583891,-77
8583899,-61
8583907,-57
8583915,-82
8583923,-101
8583930,-79
8583938,-17
8583946,47
8583954,79
8583962,72
8583969,28
8583977,-25
8583985,-66
8583993,-77
8584001,-63
8584008,-49
8584016,-48
8584024,-21
8584032,24
8584040,10
8584048,-206
8584055,-392
8584063,313
8584071,1963
8584079,2946
8584087,1833
8584094,-618
8584102,-2213
8584110,-1967
8584118,-915
8584126,-384
8584133,-418
8584141,-399
8584149,-255
8584157,-160
8584165,-95
8584173,-72
8584180,-62
8584188,-50
8584196,-37
8584204,-33
8584212,-37
8584219,-17
8584227,17
8584235,32
8584243,20
8584251,18
8584258,61
8584266,133
8584274,194
8584282,200
8584290,170
8584298,158
8584305,153
8584313,73
8584321,-91
8584329,-251
8584337,-337
8584344,-382
8584352,-434
8584360,-468
8584368,-406
8584376,-289
8584383,-205
8584391,-186
8584399,-176
8584407,-137
8584415,-82
8584423,-47
8584430,-36
8584438,-39
8584446,-42
8584454,-52
8584462,-69
8584469,-72
8584477,-53
8584485,-16
8584493,14
8584501,7
8584508,-25
8584516,-54
8584524,-60
8584532,-60
8584540,-67
8584548,-72
8584555,-66
8584563,-59
8584571,-58
8584579,-57
8584587,-47
8584594,-41
8584602,-46
8584610,-53
8584618,-48
8584626,-34
8584633,-15
8584641,14
8584649,47
8584657,58
8584665,19
8584673,-47
8584680,-97
8584688,-110
8584696,-93
8584704,-67
8584712,-63
8584719,-35
8584727,16
8584735,23
8584743,-127
8584751,-392
8584758,-66
8584766,1330
8584774,2687
8584782,2325
8584790,206
8584798,-1782
8584805,-2104
8584813,-1196
8584821,-450
8584829,-353
8584837,-372
8584844,-254
8584852,-181
8584860,-139
8584868,-81
8584876,-34
8584883,-10
8584891,-18
8584899,-25
8584907,-17
8584915,-5
8584923,-12
8584930,-31
8584938,-5
8584946,74
8584954,150
8584962,170
8584969,156
8584977,153
8584985,161
8584993,149
8585001,107
8585008,38
8585016,-47
8585024,-140
8585032,-231
8585040,-331
8585048,-437
8585055,-490
8585063,-455
8585071,-369
8585079,-294
8585087,-237
8585094,-177
8585102,-118
8585110,-91
8585118,-96
8585126,-95
8585133,-64
8585141,-41
8585149,-39
8585157,-51
8585165,-46
8585173,-20
8585180,-4
8585188,-22
8585196,-53
8585204,-62
8585212,-40
8585219,-21
8585227,-35
8585235,-69
8585243,-90
8585251,-87
8585258,-75
8585266,-62
8585274,-55
8585282,-50
8585290,-53
8585298,-62
8585305,-69
8585313,-65
8585321,-51
8585329,-9
8585337,36
8585344,53
8585352,32
8585360,-12
8585368,-78
8585376,-137
8585383,-147
8585391,-108
8585399,-78
8585407,-93
8585415,-81
8585423,-2
8585430,47
8585438,-155
8585446,-425
8585454,187
8585462,1844
8585469,2931
8585477,1897
8585485,-579
8585493,-2260
8585501,-2049
8585508,-962
8585516,-377
8585524,-381
8585532,-342
8585540,-204
8585548,-140
8585555,-105
8585563,-86
8585571,-74
8585579,-36
8585587,14
8585594,55
8585602,65
8585610,35
8585618,5
8585626,13
8585633,61
8585641,108
8585649,133
8585657,152
8585665,184
8585673,211
8585680,198
8585688,157
8585696,117
8585704,54
8585712,-70
8585719,-223
8585727,-338
8585735,-405
8585743,-445
8585751,-460
8585758,-434
8585766,-361
8585774,-276
8585782,-224
8585790,-192
8585798,-155
8585805,-99
8585813,-39
8585821,-10
8585829,-22
8585837,-37
8585844,-27
8585852,-16
8585860,-34
8585868,-53
8585876,-50
8585883,-38
8585891,-35
8585899,-47
8585907,-64
8585915,-58
8585923,-51
8585930,-87
8585938,-145
8585946,-151
8585954,-79
8585962,9
8585969,40
8585977,10
8585985,-26
8585993,-32
8586001,-42
8586008,-60
8586016,-88
8586024,-126
8586032,-150
8586040,-123
8586048,-68
8586055,-24
8586063,17
8586071,52
8586079,-23
8586087,-335
8586094,-378
8586102,727
8586110,2436
8586118,2823
8586126,1036
8586133,-1396
8586141,-2365
8586149,-1640
8586157,-639
8586165,-334
8586173,-366
8586180,-276
8586188,-167
8586196,-102
8586204,-38
8586212,-22
8586219,-27
8586227,-30
8586235,-38
8586243,-36
8586251,-13
8586258,33
8586266,87
8586274,104
8586282,101
8586290,114
8586298,138
8586305,147
8586313,161
8586321,153
8586329,109
8586337,58
8586344,22
8586352,-25
8586360,-137
8586368,-311
8586376,-451
8586383,-473
8586391,-423
8586399,-371
8586407,-336
8586415,-276
8586423,-226
8586430,-201
8586438,-166
8586446,-88
8586454,-1
8586462,25
8586469,-17
8586477,-61
8586485,-63
8586493,-46
8586501,-53
8586508,-42
8586516,-17
8586524,-27
8586532,-56
8586540,-44
8586548,-4
8586555,23
8586563,22
8586571,-9
8586579,-50
8586587,-99
8586594,-137
8586602,-126
8586610,-71
8586618,-28
8586626,7
8586633,39
8586641,33
8586649,-17
8586657,-59
8586665,-52
8586673,-41
8586680,-68
8586688,-113
8586696,-127
8586704,-55
8586712,57
8586719,86
8586727,-99
8586735,-439
8586743,-110
8586751,1441
8586758,2944
8586766,2513
8586774,169
8586782,-1974
8586790,-2271
8586798,-1289
8586805,-533
8586813,-457
8586821,-459
8586829,-334
8586837,-261
8586844,-178
8586852,-60
8586860,29
8586868,67
8586876,48
8586883,-4
8586891,-51
8586899,-62
8586907,-27
8586915,16
8586923,45
8586930,80
8586938,105
8586946,101
8586954,98
8586962,111
8586969,151
8586977,192
8586985,194
8586993,104
8587001,-65
8587008,-239
8587016,-339
8587024,-352
8587032,-346
8587040,-353
8587048,-337
8587055,-298
8587063,-261
8587071,-233
8587079,-187
8587087,-112
8587094,-52
8587102,-27
8587110,-18
8587118,-16
8587126,-6
8587133,-4
8587141,-9
8587149,-37
8587157,-90
8587165,-108
8587173,-37
8587180,40
8587188,8
8587196,-102
8587204,-154
8587212,-129
8587219,-86
8587227,-83
8587235,-92
8587243,-67
8587251,-32
8587258,-9
8587266,22
8587274,32
8587282,2
8587290,-48
8587298,-56
8587305,-34
8587313,-31
8587321,-55
8587329,-99
8587337,-81
8587344,-6
8587352,17
8587360,-161
8587368,-475
8587376,-102
8587383,1434
8587391,2848
8587399,2367
8587407,80
8587415,-1972
8587423,-2248
8587430,-1306
8587438,-584
8587446,-491
8587454,-449
8587462,-275
8587469,-180
8587477,-127
8587485,-84
8587493,-55
8587501,-15
8587508,10
8587516,8
8587524,1
8587532,3
8587540,15
8587548,32
8587555,53
8587563,84
8587571,120
8587579,142
8587587,145
8587594,144
8587602,146
8587610,155
8587618,132
8587626,30
8587633,-131
8587641,-269
8587649,-321
8587657,-327
8587665,-343
8587673,-378
8587680,-379
8587688,-318
8587696,-254
8587704,-207
8587712,-129
8587719,-32
8587727,-20
8587735,-118
8587743,-198
8587751,-148
8587758,-17
8587766,56
8587774,27
8587782,-19
8587790,-23
8587798,-19
8587805,-38
8587813,-59
8587821,-58
8587829,-45
8587837,-28
8587844,-27
8587852,-45
8587860,-66
8587868,-77
8587876,-82
8587883,-83
8587891,-85
8587899,-76
8587907,-40
8587915,-4
8587923,-11
8587930,-54
8587938,-76
8587946,-57
8587954,-29
8587962,-37
8587969,-75
8587977,-71
8587985,-3
8587993,46
8588001,-105
8588008,-404
8588016,-24
8588024,1491
8588032,2840
8588040,2284
8588048,-16
8588055,-1974
8588063,-2116
8588071,-1102
8588079,-395
8588087,-357
8588094,-365
8588102,-240
8588110,-172
8588118,-135
8588126,-101
8588133,-71
8588141,-32
8588149,-21
8588157,-34
8588165,-52
8588173,-54
8588180,-31
8588188,0
8588196,21
8588204,27
8588212,48
8588219,105
8588227,171
8588235,194
8588243,179
8588251,156
8588258,129
8588266,64
8588274,-50
8588282,-191
8588290,-328
8588298,-418
8588305,-440
8588313,-408
8588321,-338
8588329,-263
8588337,-187
8588344,-123
8588352,-91
8588360,-88
8588368,-77
8588376,-60
8588383,-51
8588391,-58
8588399,-67
8588407,-77
8588415,-82
8588423,-76
8588430,-56
8588438,-41
8588446,-35
8588454,-43
8588462,-55
8588469,-64
8588477,-68
8588485,-73
8588493,-71
8588501,-69
8588508,-82
8588516,-101
8588524,-121
8588532,-133
8588540,-124
8588548,-77
8588555,-4
8588563,49
8588571,35
8588579,-18
8588587,-52
8588594,-57
8588602,-66
8588610,-70
8588618,-74
8588626,-84
8588633,-66
8588641,-26
8588649,-31
8588657,-248
8588665,-327
8588673,598
8588680,2219
8588688,2763
8588696,1221
8588704,-1145
8588712,-2241
8588719,-1657
8588727,-686
8588735,-359
8588743,-380
8588751,-256
8588758,-135
8588766,-112
8588774,-88
8588782,-63
8588790,-40
8588798,-30
8588805,-36
8588813,-37
8588821,-29
8588829,-1
8588837,35
8588844,59
8588852,60
8588860,59
8588868,79
8588876,111
8588883,129
8588891,115
8588899,81
8588907,69
8588915,71
8588923,37
8588930,-73
8588938,-215
8588946,-325
8588954,-380
8588962,-393
8588969,-370
8588977,-309
8588985,-236
8588993,-185
8589001,-150
8589008,-123
8589016,-108
8589024,-96
8589032,-62
8589040,-19
8589048,-8
8589055,-39
8589063,-77
8589071,-76
8589079,-57
8589087,-50
8589094,-52
8589102,-55
8589110,-58
8589118,-61
8589126,-51
8589133,-36
8589141,-24
8589149,-25
8589157,-35
8589165,-48
8589173,-62
8589180,-86
8589188,-111
8589196,-129
8589204,-95
8589212,-15
8589219,55
8589227,63
8589235,15
8589243,-34
8589251,-60
8589258,-68
8589266,-60
8589274,-54
8589282,-53
8589290,-35
8589298,1
8589305,-8
8589313,-212
8589321,-404
8589329,280
8589337,1887
8589344,2837
8589352,1747
8589360,-627
8589368,-2151
8589376,-1894
8589383,-872
8589391,-373
8589399,-415
8589407,-392
8589415,-259
8589423,-160
8589430,-68
8589438,-22
8589446,-29
8589454,-44
8589462,-49
8589469,-43
8589477,-29
8589485,-24
8589493,-23
8589501,-13
8589508,24
8589516,67
8589524,101
8589532,112
8589540,127
8589548,139
8589555,135
8589563,94
8589571,45
8589579,-14
8589587,-75
8589594,-163
8589602,-277
8589610,-370
8589618,-395
8589626,-350
8589633,-274
8589641,-210
8589649,-170
8589657,-154
8589665,-131
8589673,-98
8589680,-75
8589688,-60
8589696,-47
8589704,-34
8589712,-18
8589719,-8
8589727,-7
8589735,-8
8589743,-19
8589751,-44
8589758,-68
8589766,-73
8589774,-65
8589782,-57
8589790,-47
8589798,-46
8589805,-59
8589813,-73
8589821,-79
8589829,-72
8589837,-66
8589844,-76
8589852,-101
8589860,-115
8589868,-102
8589876,-64
8589883,-22
8589891,1
8589899,-8
8589907,-22
8589915,-22
8589923,-25
8589930,-55
8589938,-75
8589946,-70
8589954,-68
8589962,-43
8589969,-3
8589977,-3
8589985,-195
8589993,-456
8590001,70
8590008,1665
8590016,2884
8590024,2100
8590032,-259
8590040,-2068
8590048,-2073
8590055,-1075
8590063,-441
8590071,-396
8590079,-354
8590087,-225
8590094,-168
8590102,-113
8590110,-60
8590118,-40
8590126,-35
8590133,-23
8590141,9
8590149,30
8590157,22
8590165,14
8590173,27
8590180,54
8590188,79
8590196,103
8590204,126
8590212,143
8590219,145
8590227,134
8590235,110
8590243,70
8590251,14
8590258,-61
8590266,-159
8590274,-278
8590282,-375
8590290,-415
8590298,-408
8590305,-381
8590313,-338
8590321,-273
8590329,-199
8590337,-139
8590344,-100
8590352,-74
8590360,-52
8590368,-37
8590376,-32
8590383,-39
8590391,-49
8590399,-58
8590407,-63
8590415,-55
8590423,-43
8590430,-37
8590438,-43
8590446,-65
8590454,-83
8590462,-83
8590469,-71
8590477,-74
8590485,-98
8590493,-121
8590501,-113
8590508,-74
8590516,-23
8590524,9
8590532,5
8590540,-32
8590548,-80
8590555,-95
8590563,-72
8590571,-39
8590579,-42
8590587,-86
8590594,-98
8590602,-29
8590610,41
8590618,-92
8590626,-401
8590633,-82
8590641,1381
8590649,2761
8590657,2301
8590665,66
8590673,-1935
8590680,-2167
8590688,-1193
8590696,-451
8590704,-362
8590712,-360
8590719,-222
8590727,-145
8590735,-115
8590743,-99
8590751,-82
8590758,-39
8590766,4
8590774,24
8590782,25
8590790,20
8590798,17
8590805,22
8590813,36
8590821,61
8590829,83
8590837,95
8590844,97
8590852,92
8590860,84
8590868,75
8590876,50
8590883,-1
8590891,-88
8590899,-196
8590907,-289
8590915,-353
8590923,-379
8590930,-356
8590938,-301
8590946,-245
8590954,-200
8590962,-158
8590969,-116
8590977,-84
8590985,-66
8590993,-59
8591001,-50
8591008,-43
8591016,-39
8591024,-42
8591032,-53
8591040,-64
8591048,-49
8591055,-22
8591063,-10
8591071,-24
8591079,-39
8591087,-44
8591094,-64
8591102,-100
8591110,-126
8591118,-106
8591126,-70
8591133,-55
8591141,-75
8591149,-96
8591157,-80
8591165,-40
8591173,3
8591180,8
8591188,-17
8591196,-51
8591204,-68
8591212,-69
8591219,-43
8591227,-28
8591235,-28
8591243,-21
8591251,-2
8591258,-37
8591266,-268
8591274,-366
8591282,507
8591290,2097
8591298,2711
8591305,1285
8591313,-1032
8591321,-2174
8591329,-1637
8591337,-659
8591344,-326
8591352,-403
8591360,-337
8591368,-214
8591376,-151
8591383,-86
8591391,-44
8591399,-28
8591407,-22
8591415,-12
8591423,13
8591430,31
8591438,29
8591446,20
8591454,29
8591462,54
8591469,67
8591477,72
8591485,77
8591493,97
8591501,128
8591508,152
8591516,138
8591524,76
8591532,-16
8591540,-118
8591548,-219
8591555,-309
8591563,-381
8591571,-411
8591579,-403
8591587,-355
8591594,-271
8591602,-183
8591610,-124
8591618,-101
8591626,-100
8591633,-96
8591641,-79
8591649,-65
8591657,-63
8591665,-65
8591673,-66
8591680,-58
8591688,-47
8591696,-36
8591704,-30
8591712,-30
8591719,-30
8591727,-37
8591735,-56
8591743,-72
8591751,-72
8591758,-55
8591766,-26
8591774,-21
8591782,-58
8591790,-96
8591798,-83
8591805,-4
8591813,68
8591821,78
8591829,22
8591837,-48
8591844,-87
8591852,-99
8591860,-107
8591868,-101
8591876,-80
8591883,-21
8591891,52
8591899,78
8591907,-51
8591915,-359
8591923,-167
8591930,1152
8591938,2610
8591946,2432
8591954,358
8591962,-1770
8591969,-2238
8591977,-1339
8591985,-523
8591993,-401
8592001,-431
8592008,-311
8592016,-205
8592024,-123
8592032,-72
8592040,-74
8592048,-69
8592055,-17
8592063,46
8592071,70
8592079,55
8592087,47
8592094,59
8592102,71
8592110,77
8592118,87
8592126,91
8592133,86
8592141,91
8592149,103
8592157,111
8592165,96
8592173,41
8592180,-50
8592188,-172
8592196,-311
8592204,-404
8592212,-414
8592219,-371
8592227,-331
8592235,-305
8592243,-267
8592251,-209
8592258,-141
8592266,-84
8592274,-40
8592282,-19
8592290,-45
8592298,-110
8592305,-147
8592313,-114
8592321,-50
8592329,-10
8592337,-10
8592344,-42
8592352,-75
8592360,-93
8592368,-96
8592376,-92
8592383,-85
8592391,-72
8592399,-27
8592407,22
8592415,20
8592423,-43
8592430,-124
8592438,-155
8592446,-116
8592454,-39
8592462,2
8592469,-8
8592477,-25
8592485,-17
8592493,-8
8592501,-40
8592508,-78
8592516,-77
8592524,-69
8592532,-56
8592540,-24
8592548,19
8592555,-94
8592563,-363
8592571,-23
8592579,1402
8592587,2695
8592594,2170
8592602,-47
8592610,-1949
8592618,-2092
8592626,-1098
8592633,-387
8592641,-333
8592649,-343
8592657,-218
8592665,-144
8592673,-115
8592680,-95
8592688,-63
8592696,-13
8592704,0
8592712,-41
8592719,-67
8592727,-27
8592735,41
8592743,79
8592751,72
8592758,64
8592766,83
8592774,102
8592782,102
8592790,101
8592798,100
8592805,88
8592813,65
8592821,30
8592829,-35
8592837,-155
8592844,-296
8592852,-387
8592860,-378
8592868,-313
8592876,-264
8592883,-243
8592891,-216
8592899,-175
8592907,-135
8592915,-94
8592923,-58
8592930,-47
8592938,-67
8592946,-90
8592954,-82
8592962,-47
8592969,-17
8592977,-4
8592985,-4
8592993,-16
8593001,-43
8593008,-68
8593016,-72
8593024,-64
8593032,-66
8593040,-79
8593048,-89
8593055,-85
8593063,-75
8593071,-67
8593079,-91
8593087,-149
8593094,-155
8593102,-58
8593110,83
8593118,146
8593126,72
8593133,-50
8593141,-104
8593149,-86
8593157,-59
8593165,-55
8593173,-76
8593180,-74
8593188,-30
8593196,7
8593204,-139
8593212,-336
8593219,220
8593227,1707
8593235,2694
8593243,1752
8593251,-524
8593258,-2054
8593266,-1830
8593274,-815
8593282,-315
8593290,-376
8593298,-364
8593305,-233
8593313,-161
8593321,-114
8593329,-77
8593337,-46
8593344,-20
8593352,-14
8593360,-8
8593368,5
8593376,25
8593383,41
8593391,31
8593399,-3
8593407,-16
8593415,34
8593423,118
8593430,171
8593438,151
8593446,101
8593454,60
8593462,38
8593469,-15
8593477,-122
8593485,-250
8593493,-345
8593501,-380
8593508,-365
8593516,-331
8593524,-310
8593532,-287
8593540,-240
8593548,-189
8593555,-145
8593563,-114
8593571,-91
8593579,-76
8593587,-66
8593594,-63
8593602,-62
8593610,-52
8593618,-35
8593626,-26
8593633,-27
8593641,-37
8593649,-44
8593657,-35
8593665,-19
8593673,-13
8593680,-24
8593688,-24
8593696,-13
8593704,-10
8593712,-37
8593719,-81
8593727,-102
8593735,-68
8593743,19
8593751,108
8593758,120
8593766,37
8593774,-73
8593782,-124
8593790,-102
8593798,-64
8593805,-68
8593813,-63
8593821,0
8593829,57
8593837,-4
8593844,-296
8593852,-346
8593860,688
8593868,2322
8593876,2725
8593883,1040
8593891,-1327
8593899,-2341
8593907,-1668
8593915,-636
8593923,-282
8593930,-348
8593938,-335
8593946,-284
8593954,-225
8593962,-130
8593969,-89
8593977,-76
8593985,-36
8593993,17
8594001,28
8594008,-5
8594016,2
8594024,93
8594032,191
8594040,203
8594048,121
8594055,32
8594063,12
8594071,62
8594079,129
8594087,162
8594094,138
8594102,47
8594110,-84
8594118,-208
8594126,-303
8594133,-359
8594141,-361
8594149,-331
8594157,-289
8594165,-238
8594173,-196
8594180,-177
8594188,-163
8594196,-139
8594204,-103
8594212,-73
8594219,-52
8594227,-45
8594235,-38
8594243,-13
8594251,7
8594258,10
8594266,-9
8594274,-57
8594282,-110
8594290,-129
8594298,-130
8594305,-155
8594313,-202
8594321,-214
8594329,-171
8594337,-98
8594344,-44
8594352,-38
8594360,-37
8594368,-18
8594376,-11
8594383,-46
8594391,-95
8594399,-121
8594407,-107
8594415,-85
8594423,-103
8594430,-174
8594438,-285
8594446,-528
8594454,-816
8594462,-351
8594469,1227
8594477,2577
8594485,2043
8594493,-135
8594501,-1929
8594508,-1961
8594516,-899
8594524,-166
8594532,-73
8594540,-36
8594548,81
8594555,89
8594563,60
8594571,64
8594579,84
8594587,72
8594594,15
8594602,-3
8594610,63
8594618,141
8594626,169
8594633,150
8594641,138
8594649,150
8594657,168
8594665,187
8594673,208
8594680,198
8594688,169
8594696,151
8594704,104
8594712,-8
8594719,-157
8594727,-293
8594735,-384
8594743,-448
8594751,-490
8594758,-466
8594766,-393
8594774,-318
8594782,-248
8594790,-158
8594798,-92
8594805,-71
8594813,-89
8594821,-96
8594829,-62
8594837,-10
8594844,-18
8594852,-43
8594860,-12
8594868,26
8594876,-1
8594883,-85
8594891,-135
8594899,-107
8594907,-52
8594915,-40
8594923,-58
8594930,-42
8594938,-47
8594946,-102
8594954,-108
8594962,-32
8594969,14
8594977,-40
8594985,-113
8594993,-123
8595001,-100
8595008,-68
8595016,-6
8595024,55
8595032,-82
8595040,-418
8595048,-111
8595055,1433
8595063,2955
8595071,2555
8595079,242
8595087,-1939
8595094,-2323
8595102,-1379
8595110,-600
8595118,-495
8595126,-462
8595133,-225
8595141,-49
8595149,-19
8595157,-68
8595165,-91
8595173,-50
8595180,-45
8595188,-74
8595196,-14
8595204,92
8595212,113
8595219,50
8595227,7
8595235,51
8595243,148
8595251,203
8595258,167
8595266,105
8595274,78
8595282,101
8595290,153
8595298,119
8595305,-75
8595313,-339
8595321,-515
8595329,-541
8595337,-467
8595344,-384
8595352,-346
8595360,-297
8595368,-208
8595376,-127
8595383,-81
8595391,-75
8595399,-85
8595407,-71
8595415,-49
8595423,-28
8595430,-2
8595438,21
8595446,15
8595454,-11
8595462,-41
8595469,-49
8595477,-26
8595485,8
8595493,0
8595501,-61
8595508,-137
8595516,-144
8595524,-73
8595532,-2
8595540,-7
8595548,-45
8595555,-74
8595563,-78
8595571,-78
8595579,-58
8595587,-46
8595594,-41
8595602,-19
8595610,12
8595618,-59
8595626,-346
8595633,-329
8595641,862
8595649,2626
8595657,3003
8595665,1132
8595673,-1406
8595680,-2443
8595688,-1724
8595696,-705
8595704,-394
8595712,-426
8595719,-316
8595727,-202
8595735,-161
8595743,-126
8595751,-86
8595758,-56
8595766,-51
8595774,-72
8595782,-60
8595790,-4
8595798,49
8595805,59
8595813,46
8595821,56
8595829,99
8595837,152
8595844,181
8595852,182
8595860,165
8595868,147
8595876,117
8595883,47
8595891,-81
8595899,-233
8595907,-360
8595915,-426
8595923,-437
8595930,-405
8595938,-356
8595946,-299
8595954,-244
8595962,-185
8595969,-142
8595977,-115
8595985,-94
8595993,-63
8596001,-28
8596008,-2
8596016,19
8596024,33
8596032,38
8596040,26
8596048,1
8596055,-23
8596063,-42
8596071,-51
8596079,-59
8596087,-65
8596094,-72
8596102,-88
8596110,-95
8596118,-69
8596126,-30
8596133,-15
8596141,-33
8596149,-58
8596157,-69
8596165,-70
8596173,-59
8596180,-50
8596188,-51
8596196,-15
8596204,34
8596212,-13
8596219,-322
8596227,-457
8596235,577
8596243,2480
8596251,3249
8596258,1607
8596266,-1133
8596274,-2538
8596282,-1971
8596290,-839
8596298,-420
8596305,-490
8596313,-407
8596321,-255
8596329,-180
8596337,-120
8596344,-92
8596352,-79
8596360,-65
8596368,-51
8596376,-26
8596383,-2
8596391,17
8596399,42
8596407,60
8596415,73
8596423,93
8596430,123
8596438,161
8596446,190
8596454,187
8596462,173
8596469,145
8596477,79
8596485,-50
8596493,-211
8596501,-351
8596508,-425
8596516,-431
8596524,-400
8596532,-350
8596540,-283
8596548,-207
8596555,-140
8596563,-103
8596571,-84
8596579,-65
8596587,-21
8596594,19
8596602,34
8596610,15
8596618,-7
8596626,-10
8596633,-4
8596641,-4
8596649,-17
8596657,-40
8596665,-54
8596673,-40
8596680,-11
8596688,-1
8596696,-25
8596704,-70
8596712,-98
8596719,-106
8596727,-106
8596735,-105
8596743,-93
8596751,-80
8596758,-91
8596766,-108
8596774,-111
8596782,-103
8596790,-96
8596798,-91
8596805,-75
8596813,-49
8596821,-21
8596829,-18
8596837,-38
8596844,-62
8596852,-75
8596860,-90
8596868,-89
8596876,-75
8596883,-72
8596891,-45
8596899,9
8596907,18
8596915,-165
8596923,-403
8596930,174
8596938,1819
8596946,3008
8596954,2108
8596962,-364
8596969,-2175
8596977,-2101
8596985,-1046
8596993,-435
8597001,-421
8597008,-374
8597016,-228
8597024,-182
8597032,-164
8597040,-125
8597048,-71
8597055,-25
8597063,-9
8597071,-3
8597079,3
8597087,9
8597094,20
8597102,40
8597110,63
8597118,85
8597126,113
8597133,143
8597141,175
8597149,196
8597157,191
8597165,171
8597173,137
8597180,87
8597188,-13
8597196,-149
8597204,-301
8597212,-416
8597219,-451
8597227,-413
8597235,-347
8597243,-291
8597251,-256
8597258,-217
8597266,-158
8597274,-102
8597282,-73
8597290,-68
8597298,-69
8597305,-70
8597313,-71
8597321,-66
8597329,-54
8597337,-51
8597344,-66
8597352,-78
8597360,-65
8597368,-27
8597376,-15
8597383,-35
8597391,-57
8597399,-63
8597407,-62
8597415,-60
8597423,-69
8597430,-73
8597438,-74
8597446,-68
8597454,-66
8597462,-73
8597469,-95
8597477,-109
8597485,-98
8597493,-65
8597501,-23
8597508,0
8597516,-5
8597524,-26
8597532,-55
8597540,-72
8597548,-72
8597555,-56
8597563,-48
8597571,-55
8597579,-62
8597587,-69
8597594,-75
8597602,-77
8597610,-54
8597618,-23
8597626,-14
8597633,-45
8597641,-82
8597649,-88
8597657,-65
8597665,-30
8597673,14
8597680,29
8597688,8
8597696,-37
8597704,-70
8597712,-85
8597719,-93
8597727,-94
8597735,-84
8597743,-88
8597751,-65
8597758,-5
8597766,16
8597774,-178
8597782,-447
8597790,102
8597798,1772
8597805,3045
8597813,2221
8597821,-264
8597829,-2174
8597837,-2193
8597844,-1157
8597852,-500
8597860,-448
8597868,-391
8597876,-233
8597883,-165
8597891,-130
8597899,-96
8597907,-76
8597915,-67
8597923,-51
8597930,-26
8597938,-7
8597946,4
8597954,22
8597962,48
8597969,65
8597977,83
8597985,104
8597993,122
8598001,146
8598008,167
8598016,169
8598024,146
8598032,104
8598040,51
8598048,-11
8598055,-105
8598063,-227
8598071,-352
8598079,-431
8598087,-442
8598094,-404
8598102,-341
8598110,-283
8598118,-229
8598126,-177
8598133,-140
8598141,-111
8598149,-77
8598157,-44
8598165,-19
8598173,-16
8598180,-30
8598188,-43
8598196,-52
8598204,-66
8598212,-69
8598219,-57
8598227,-46
8598235,-43
8598243,-51
8598251,-55
8598258,-56
8598266,-50
8598274,-42
8598282,-41
8598290,-49
8598298,-62
8598305,-70
8598313,-62
8598321,-54
8598329,-58
8598337,-60
8598344,-51
8598352,-50
8598360,-57
8598368,-68
8598376,-63
8598383,-53
8598391,-50
8598399,-59
8598407,-73
8598415,-83
8598423,-77
8598430,-50
8598438,-20
8598446,4
8598454,5
8598462,-17
8598469,-48
8598477,-64
8598485,-62
8598493,-68
8598501,-69
8598508,-70
8598516,-74
8598524,-40
8598532,10
8598540,-6
8598548,-252
8598555,-441
8598563,366
8598571,2122
8598579,3069
8598587,1793
8598594,-756
8598602,-2305
8598610,-1982
8598618,-933
8598626,-446
8598633,-461
8598641,-377
8598649,-232
8598657,-169
8598665,-119
8598673,-74
8598680,-40
8598688,-13
8598696,-5
8598704,5
8598712,14
8598719,17
8598727,25
8598735,47
8598743,70
8598751,95
8598758,117
8598766,140
8598774,167
8598782,193
8598790,198
8598798,178
8598805,132
8598813,58
8598821,-55
8598829,-203
8598837,-352
8598844,-448
8598852,-472
8598860,-444
8598868,-391
8598876,-326
8598883,-269
8598891,-214
8598899,-174
8598907,-140
8598915,-108
8598923,-90
8598930,-75
8598938,-67
8598946,-58
8598954,-49
8598962,-47
8598969,-47
8598977,-40
8598985,-34
8598993,-33
8599001,-30
8599008,-26
8599016,-26
8599024,-32
8599032,-41
8599040,-42
8599048,-40
8599055,-41
8599063,-45
8599071,-50
8599079,-48
8599087,-45
8599094,-41
8599102,-43
8599110,-54
8599118,-63
8599126,-60
8599133,-50
8599141,-42
8599149,-43
8599157,-45
8599165,-44
8599173,-41
8599180,-40
8599188,-42
8599196,-43
8599204,-57
8599212,-81
8599219,-93
8599227,-65
8599235,-16
8599243,21
8599251,34
8599258,36
8599266,22
8599274,-19
8599282,-80
8599290,-114
8599298,-109
8599305,-81
8599313,-79
8599321,-73
8599329,-24
8599337,14
8599344,-62
8599352,-333
8599360,-301
8599368,864
8599376,2586
8599383,2960
8599391,1144
8599399,-1350
8599407,-2393
8599415,-1712
8599423,-719
8599430,-432
8599438,-481
8599446,-364
8599454,-232
8599462,-179
8599469,-129
8599477,-94
8599485,-64
8599493,-44
8599501,-42
8599508,-28
8599516,5
8599524,27
8599532,38
8599540,58
8599548,75
8599555,85
8599563,95
8599571,121
8599579,167
8599587,200
8599594,181
8599602,136
8599610,104
8599618,55
8599626,-38
8599633,-187
8599641,-350
8599649,-465
8599657,-499
8599665,-466
8599673,-403
8599680,-350
8599688,-299
8599696,-237
8599704,-193
8599712,-176
8599719,-159
8599727,-125
8599735,-73
8599743,-44
8599751,-50
8599758,-55
8599766,-35
8599774,-6
8599782,-1
8599790,-16
8599798,-27
8599805,-30
8599813,-35
8599821,-58
8599829,-68
8599837,-61
8599844,-54
8599852,-62
8599860,-72
8599868,-80
8599876,-82
8599883,-64
8599891,-33
8599899,-29
8599907,-53
8599915,-70
8599923,-68
8599930,-64
8599938,-75
8599946,-80
8599954,-53
8599962,-8
8599969,28
8599977,36
8599985,5
8599993,-56
8600001,-93
8600008,-95
8600016,-83
8600024,-69
8600032,-64
8600040,-64
8600048,-32
8600055,11
8600063,-13
8600071,-242
8600079,-347
8600087,511
8600094,2128
8600102,2802
8600110,1394
8600118,-994
8600126,-2255
8600133,-1763
8600141,-732
8600149,-324
8600157,-375
8600165,-309
8600173,-174
8600180,-119
8600188,-87
8600196,-74
8600204,-62
8600212,-38
8600219,-29
8600227,-27
8600235,-21
8600243,-4
8600251,16
8600258,31
8600266,55
8600274,82
8600282,104
8600290,123
8600298,142
8600305,174
8600313,188
8600321,167
8600329,109
8600337,25
8600344,-96
8600352,-242
8600360,-375
8600368,-442
8600376,-436
8600383,-388
8600391,-332
8600399,-282
8600407,-236
8600415,-187
8600423,-148
8600430,-131
8600438,-131
8600446,-121
8600454,-82
8600462,-35
8600469,-9
8600477,-2
8600485,-6
8600493,-1
8600501,-2
8600508,-6
8600516,-13
8600524,-30
8600532,-52
8600540,-68
8600548,-75
8600555,-73
8600563,-64
8600571,-53
8600579,-45
8600587,-45
8600594,-52
8600602,-62
8600610,-71
8600618,-80
8600626,-92
8600633,-97
8600641,-83
8600649,-53
8600657,-15
8600665,17
8600673,34
8600680,26
8600688,-10
8600696,-55
8600704,-85
8600712,-90
8600719,-70
8600727,-61
8600735,-63
8600743,-44
8600751,-5
8600758,-46
8600766,-285
8600774,-206
8600782,938
8600790,2440
8600798,2514
8600805,624
8600813,-1572
8600821,-2207
8600829,-1366
8600837,-495
8600844,-326
8600852,-370
8600860,-242
8600868,-149
8600876,-123
8600883,-88
8600891,-56
8600899,-37
8600907,-34
8600915,-34
8600923,-22
8600930,-13
8600938,-1
8600946,19
8600954,48
8600962,73
8600969,84
8600977,95
8600985,127
8600993,171
8601001,198
8601008,189
8601016,153
8601024,98
8601032,7
8601040,-127
8601048,-278
8601055,-396
8601063,-440
8601071,-420
8601079,-374
8601087,-327
8601094,-280
8601102,-226
8601110,-178
8601118,-142
8601126,-117
8601133,-99
8601141,-81
8601149,-58
8601157,-40
8601165,-34
8601173,-32
8601180,-28
8601188,-37
8601196,-47
8601204,-50
8601212,-39
8601219,-30
8601227,-40
8601235,-55
8601243,-61
8601251,-51
8601258,-46
8601266,-61
8601274,-88
8601282,-109
8601290,-99
8601298,-71
8601305,-69
8601313,-71
8601321,-62
8601329,-30
8601337,6
8601344,18
8601352,5
8601360,-24
8601368,-56
8601376,-78
8601383,-83
8601391,-72
8601399,-76
8601407,-91
8601415,-73
8601423,-19
8601430,-14
8601438,-210
8601446,-367
8601454,374
8601462,1968
8601469,2785
8601477,1551
8601485,-820
8601493,-2203
8601501,-1807
8601508,-776
8601516,-337
8601524,-388
8601532,-317
8601540,-159
8601548,-95
8601555,-69
8601563,-64
8601571,-69
8601579,-57
8601587,-37
8601594,-17
8601602,-5
8601610,1
8601618,13
8601626,33
8601633,53
8601641,70
8601649,89
8601657,114
8601665,129
8601673,132
8601680,132
8601688,126
8601696,91
8601704,14
8601712,-96
8601719,-222
8601727,-341
8601735,-424
8601743,-440
8601751,-392
8601758,-315
8601766,-257
8601774,-225
8601782,-196
8601790,-152
8601798,-113
8601805,-97
8601813,-90
8601821,-75
8601829,-54
8601837,-42
8601844,-43
8601852,-43
8601860,-39
8601868,-26
8601876,-18
8601883,-24
8601891,-37
8601899,-49
8601907,-60
8601915,-70
8601923,-76
8601930,-73
8601938,-67
8601946,-62
8601954,-69
8601962,-72
8601969,-73
8601977,-83
8601985,-93
8601993,-72
8602001,-14
8602008,33
8602016,26
8602024,-14
8602032,-57
8602040,-81
8602048,-91
8602055,-80
8602063,-65
8602071,-75
8602079,-90
8602087,-50
8602094,11
8602102,-70
8602110,-359
8602118,-149
8602126,1198
8602133,2658
8602141,2425
8602149,300
8602157,-1815
8602165,-2215
8602173,-1267
8602180,-448
8602188,-335
8602196,-375
8602204,-266
8602212,-182
8602219,-132
8602227,-88
8602235,-72
8602243,-55
8602251,-25
8602258,-2
8602266,2
8602274,-13
8602282,-8
8602290,24
8602298,62
8602305,80
8602313,92
8602321,112
8602329,131
8602337,134
8602344,128
8602352,115
8602360,78
8602368,8
8602376,-87
8602383,-194
8602391,-302
8602399,-383
8602407,-413
8602415,-383
8602423,-335
8602430,-295
8602438,-254
8602446,-198
8602454,-146
8602462,-99
8602469,-65
8602477,-42
8602485,-28
8602493,-30
8602501,-39
8602508,-38
8602516,-20
8602524,-1
8602532,-9
8602540,-31
8602548,-47
8602555,-44
8602563,-45
8602571,-66
8602579,-87
8602587,-89
8602594,-77
8602602,-66
8602610,-64
8602618,-84
8602626,-113
8602633,-115
8602641,-69
8602649,8
8602657,56
8602665,45
8602673,2
8602680,-33
8602688,-53
8602696,-60
8602704,-57
8602712,-67
8602719,-64
8602727,-22
8602735,19
8602743,-35
8602751,-271
8602758,-170
8602766,989
8602774,2505
8602782,2599
8602790,725
8602798,-1517
8602805,-2254
8602813,-1465
8602821,-550
8602829,-324
8602837,-361
8602844,-250
8602852,-160
8602860,-125
8602868,-80
8602876,-56
8602883,-37
8602891,-19
8602899,-9
8602907,3
8602915,18
8602923,25
8602930,27
8602938,36
8602946,64
8602954,96
8602962,118
8602969,121
8602977,105
8602985,87
8602993,84
8603001,79
8603008,36
8603016,-64
8603024,-194
8603032,-307
8603040,-379
8603048,-414
8603055,-409
8603063,-377
8603071,-317
8603079,-254
8603087,-202
8603094,-158
8603102,-122
8603110,-96
8603118,-86
8603126,-76
8603133,-67
8603141,-48
8603149,-31
8603157,-29
8603165,-40
8603173,-47
8603180,-47
8603188,-54
8603196,-69
8603204,-80
8603212,-92
8603219,-101
8603227,-109
8603235,-117
8603243,-125
8603251,-120
8603258,-85
8603266,-33
8603274,-12
8603282,-38
8603290,-71
8603298,-75
8603305,-60
8603313,-51
8603321,-48
8603329,-59
8603337,-67
8603344,-40
8603352,19
8603360,-6
8603368,-257
8603376,-249
8603383,829
8603391,2408
8603399,2677
8603407,885
8603415,-1452
8603423,-2313
8603430,-1533
8603438,-542
8603446,-272
8603454,-328
8603462,-230
8603469,-125
8603477,-99
8603485,-81
8603493,-60
8603501,-29
8603508,-5
8603516,0
8603524,10
8603532,27
8603540,48
8603548,64
8603555,90
8603563,128
8603571,167
8603579,181
8603587,155
8603594,109
8603602,75
8603610,58
8603618,33
8603626,-19
8603633,-95
8603641,-202
8603649,-317
8603657,-409
8603665,-431
8603673,-397
8603680,-344
8603688,-304
8603696,-255
8603704,-202
8603712,-146
8603719,-111
8603727,-90
8603735,-75
8603743,-57
8603751,-37
8603758,-17
8603766,-7
8603774,-5
8603782,-11
8603790,-18
8603798,-23
8603805,-31
8603813,-47
8603821,-58
8603829,-53
8603837,-55
8603844,-70
8603852,-78
8603860,-60
8603868,-27
8603876,-24
8603883,-45
8603891,-65
8603899,-66
8603907,-65
8603915,-60
8603923,-58
8603930,-65
8603938,-43
8603946,23
8603954,50
8603962,-131
8603969,-366
8603977,178
8603985,1708
8603993,2768
8604001,1870
8604008,-434
8604016,-2065
8604024,-1930
8604032,-931
8604040,-379
8604048,-386
8604055,-351
8604063,-208
8604071,-148
8604079,-130
8604087,-113
8604094,-96
8604102,-59
8604110,-41
8604118,-43
8604126,-37
8604133,-21
8604141,9
8604149,29
8604157,44
8604165,56
8604173,82
8604180,107
8604188,114
8604196,106
8604204,84
8604212,60
8604219,21
8604227,-40
8604235,-129
8604243,-230
8604251,-324
8604258,-365
8604266,-357
8604274,-319
8604282,-272
8604290,-224
8604298,-184
8604305,-143
8604313,-110
8604321,-84
8604329,-63
8604337,-43
8604344,-31
8604352,-20
8604360,-20
8604368,-28
8604376,-39
8604383,-42
8604391,-41
8604399,-41
8604407,-54
8604415,-67
8604423,-79
8604430,-96
8604438,-105
8604446,-83
8604454,-33
8604462,6
8604469,9
8604477,-21
8604485,-56
8604493,-76
8604501,-78
8604508,-67
8604516,-70
8604524,-72
8604532,-40
8604540,-1
8604548,-58
8604555,-318
8604563,-295
8604571,817
8604579,2413
8604587,2672
8604594,872
8604602,-1436
8604610,-2276
8604618,-1517
8604626,-571
8604633,-330
8604641,-393
8604649,-297
8604657,-196
8604665,-149
8604673,-101
8604680,-74
8604688,-62
8604696,-50
8604704,-45
8604712,-34
8604719,-21
8604727,-6
8604735,8
8604743,23
8604751,54
8604758,84
8604766,111
8604774,124
8604782,121
8604790,115
8604798,106
8604805,77
8604813,24
8604821,-69
8604829,-180
8604837,-283
8604844,-348
8604852,-364
8604860,-335
8604868,-289
8604876,-237
8604883,-197
8604891,-156
8604899,-121
8604907,-93
8604915,-74
8604923,-59
8604930,-44
8604938,-32
8604946,-30
8604954,-33
8604962,-36
8604969,-37
8604977,-40
8604985,-41
8604993,-45
8605001,-65
8605008,-93
8605016,-106
8605024,-88
8605032,-43
8605040,-5
8605048,7
8605055,-14
8605063,-36
8605071,-57
8605079,-72
8605087,-70
8605094,-70
8605102,-70
8605110,-43
8605118,1
8605126,-10
8605133,-220
8605141,-408
8605149,307
8605157,1943
8605165,2869
8605173,1701
8605180,-719
8605188,-2206
8605196,-1867
8605204,-818
8605212,-351
8605219,-409
8605227,-360
8605235,-218
8605243,-157
8605251,-119
8605258,-101
8605266,-92
8605274,-71
8605282,-41
8605290,-15
8605298,1
8605305,8
8605313,29
8605321,51
8605329,69
8605337,90
8605344,115
8605352,134
8605360,135
8605368,117
8605376,95
8605383,66
8605391,16
8605399,-69
8605407,-178
8605415,-287
8605423,-363
8605430,-387
8605438,-363
8605446,-309
8605454,-256
8605462,-223
8605469,-190
8605477,-157
8605485,-115
8605493,-84
8605501,-57
8605508,-44
8605516,-30
8605524,-26
8605532,-22
8605540,-16
8605548,-14
8605555,-13
8605563,-17
8605571,-24
8605579,-31
8605587,-42
8605594,-56
8605602,-78
8605610,-94
8605618,-83
8605626,-41
8605633,11
8605641,30
8605649,9
8605657,-27
8605665,-53
8605673,-69
8605680,-71
8605688,-59
8605696,-60
8605704,-47
8605712,-12
8605719,4
8605727,-130
8605735,-389
8605743,-15
8605751,1434
8605758,2717
8605766,2161
8605774,-62
8605782,-1942
8605790,-2058
8605798,-1068
8605805,-394
8605813,-381
8605821,-389
8605829,-241
8605837,-158
8605844,-113
8605852,-76
8605860,-59
8605868,-47
8605876,-42
8605883,-30
8605891,-15
8605899,8
8605907,23
8605915,36
8605923,43
8605930,57
8605938,78
8605946,104
8605954,120
8605962,129
8605969,120
8605977,96
8605985,54
8605993,-13
8606001,-109
8606008,-221
8606016,-316
8606024,-361
8606032,-357
8606040,-323
8606048,-282
8606055,-242
8606063,-196
8606071,-148
8606079,-107
8606087,-79
8606094,-67
8606102,-59
8606110,-51
8606118,-49
8606126,-45
8606133,-45
8606141,-53
8606149,-60
8606157,-61
8606165,-51
8606173,-56
8606180,-67
8606188,-72
8606196,-65
8606204,-62
8606212,-77
8606219,-95
8606227,-107
8606235,-114
8606243,-124
8606251,-112
8606258,-63
8606266,-4
8606274,30
8606282,17
8606290,-18
8606298,-54
8606305,-71
8606313,-69
8606321,-59
8606329,-58
8606337,-39
8606344,5
8606352,30
8606360,-109
8606368,-364
8606376,67
8606383,1566
8606391,2809
8606399,2134
8606407,-169
8606415,-2025
8606423,-2070
8606430,-1050
8606438,-395
8606446,-384
8606454,-378
8606462,-239
8606469,-158
8606477,-110
8606485,-63
8606493,-39
8606501,-26
8606508,-20
8606516,-13
8606524,1
8606532,16
8606540,29
8606548,41
8606555,51
8606563,64
8606571,86
8606579,112
8606587,126
8606594,109
8606602,82
8606610,62
8606618,39
8606626,-14
8606633,-101
8606641,-202
8606649,-295
8606657,-358
8606665,-375
8606673,-351
8606680,-314
8606688,-273
8606696,-229
8606704,-172
8606712,-127
8606719,-97
8606727,-76
8606735,-66
8606743,-68
8606751,-72
8606758,-63
8606766,-42
8606774,-31
8606782,-40
8606790,-52
8606798,-52
8606805,-38
8606813,-31
8606821,-48
8606829,-72
8606837,-82
8606844,-67
8606852,-56
8606860,-63
8606868,-74
8606876,-69
8606883,-50
8606891,-47
8606899,-71
8606907,-95
8606915,-97
8606923,-73
8606930,-33
8606938,2
8606946,12
8606954,1
8606962,-24
8606969,-52
8606977,-68
8606985,-66
8606993,-58
8607001,-65
8607008,-57
8607016,-9
8607024,29
8607032,-103
8607040,-330
8607048,123
8607055,1582
8607063,2743
8607071,2031
8607079,-245
8607087,-2046
8607094,-2071
8607102,-1054
8607110,-377
8607118,-320
8607126,-314
8607133,-205
8607141,-150
8607149,-115
8607157,-66
8607165,-24
8607173,-11
8607180,-28
8607188,-26
8607196,13
8607204,51
8607212,65
8607219,58
8607227,61
8607235,79
8607243,95
8607251,102
8607258,95
8607266,79
8607274,69
8607282,67
8607290,53
8607298,9
8607305,-80
8607313,-187
8607321,-274
8607329,-336
8607337,-367
8607344,-369
8607352,-353
8607360,-316
8607368,-250
8607376,-160
8607383,-80
8607391,-34
8607399,-27
8607407,-50
8607415,-63
8607423,-67
8607430,-72
8607438,-72
8607446,-69
8607454,-58
8607462,-44
8607469,-45
8607477,-63
8607485,-81
8607493,-88
8607501,-78
8607508,-71
8607516,-81
8607524,-98
8607532,-120
8607540,-134
8607548,-121
8607555,-81
8607563,-46
8607571,-23
8607579,-24
8607587,-43
8607594,-58
8607602,-77
8607610,-90
8607618,-90
8607626,-94
8607633,-82
8607641,-25
8607649,26
8607657,-81
8607665,-321
8607673,5
8607680,1368
8607688,2658
8607696,2207
8607704,35
8607712,-1941
8607719,-2184
8607727,-1195
8607735,-412
8607743,-331
8607751,-382
8607758,-270
8607766,-173
8607774,-118
8607782,-75
8607790,-49
8607798,-35
8607805,-33
8607813,-23
8607821,9
8607829,52
8607837,74
8607844,75
8607852,91
8607860,124
8607868,146
8607876,152
8607883,157
8607891,152
8607899,131
8607907,89
8607915,11
8607923,-77
8607930,-170
8607938,-269
8607946,-357
8607954,-413
8607962,-412
8607969,-357
8607977,-283
8607985,-230
8607993,-201
8608001,-169
8608008,-127
8608016,-88
8608024,-65
8608032,-52
8608040,-32
8608048,-19
8608055,-3
8608063,8
8608071,18
8608079,14
8608087,0
8608094,-7
8608102,-14
8608110,-32
8608118,-57
8608126,-62
8608133,-49
8608141,-44
8608149,-59
8608157,-86
8608165,-98
8608173,-77
8608180,-35
8608188,2
8608196,8
8608204,-20
8608212,-53
8608219,-73
8608227,-81
8608235,-74
8608243,-74
8608251,-80
8608258,-43
8608266,20
8608274,19
8608282,-210
8608290,-391
8608298,378
8608305,2025
8608313,2861
8608321,1589
8608329,-839
8608337,-2251
8608344,-1867
8608352,-833
8608360,-388
8608368,-432
8608376,-367
8608383,-223
8608391,-162
8608399,-122
8608407,-94
8608415,-61
8608423,-38
8608430,-33
8608438,-32
8608446,-16
8608454,16
8608462,50
8608469,68
8608477,66
8608485,64
8608493,90
8608501,139
8608508,181
8608516,185
8608524,164
8608532,127
8608540,54
8608548,-67
8608555,-214
8608563,-328
8608571,-382
8608579,-390
8608587,-372
8608594,-329
8608602,-283
8608610,-243
8608618,-205
8608626,-164
8608633,-125
8608641,-94
8608649,-81
8608657,-72
8608665,-58
8608673,-41
8608680,-33
8608688,-33
8608696,-35
8608704,-33
8608712,-26
8608719,-27
8608727,-30
8608735,-33
8608743,-37
8608751,-48
8608758,-58
8608766,-57
8608774,-39
8608782,-34
8608790,-47
8608798,-86
8608805,-109
8608813,-94
8608821,-44
8608829,3
8608837,10
8608844,-20
8608852,-58
8608860,-77
8608868,-80
8608876,-71
8608883,-63
8608891,-69
8608899,-51
8608907,-11
8608915,-12
8608923,-213
8608930,-354
8608938,425
8608946,2046
8608954,2838
8608962,1540
8608969,-876
8608977,-2247
8608985,-1825
8608993,-781
8609001,-336
8609008,-377
8609016,-312
8609024,-180
8609032,-142
8609040,-115
8609048,-85
8609055,-56
8609063,-36
8609071,-36
8609079,-32
8609087,-18
8609094,3
8609102,21
8609110,38
8609118,56
8609126,72
8609133,91
8609141,124
8609149,168
8609157,197
8609165,185
8609173,139
8609180,66
8609188,-33
8609196,-156
8609204,-284
8609212,-375
8609219,-407
8609227,-393
8609235,-351
8609243,-301
8609251,-242
8609258,-192
8609266,-162
8609274,-137
8609282,-106
8609290,-78
8609298,-66
8609305,-59
8609313,-52
8609321,-33
8609329,-19
8609337,-10
8609344,-7
8609352,-6
8609360,-15
8609368,-29
8609376,-43
8609383,-50
8609391,-54
8609399,-58
8609407,-64
8609415,-66
8609423,-63
8609430,-56
8609438,-50
8609446,-52
8609454,-61
8609462,-60
8609469,-53
8609477,-39
8609485,-39
8609493,-43
8609501,-47
8609508,-49
8609516,-51
8609524,-48
8609532,-48
8609540,-60
8609548,-78
8609555,-79
8609563,-74
8609571,-73
8609579,-82
8609587,-85
8609594,-69
8609602,-53
8609610,-51
8609618,-57
8609626,-58
8609633,-53
8609641,-49
8609649,-51
8609657,-55
8609665,-61
8609673,-60
8609680,-62
8609688,-73
8609696,-77
8609704,-58
8609712,-16
8609719,10
8609727,-7
8609735,-56
8609743,-93
8609751,-90
8609758,-75
8609766,-83
8609774,-67
8609782,-19
8609790,5
8609798,-142
8609805,-404
8609813,38
8609821,1616
8609829,2969
8609837,2345
8609844,-66
8609852,-2107
8609860,-2279
8609868,-1247
8609876,-512
8609883,-445
8609891,-426
8609899,-278
8609907,-203
8609915,-157
8609923,-114
8609930,-76
8609938,-47
8609946,-25
8609954,-2
8609962,24
8609969,36
8609977,29
8609985,22
8609993,26
8610001,47
8610008,78
8610016,120
8610024,166
8610032,201
8610040,215
8610048,197
8610055,152
8610063,103
8610071,54
8610079,-19
8610087,-136
8610094,-278
8610102,-396
8610110,-447
8610118,-445
8610126,-409
8610133,-355
8610141,-304
8610149,-255
8610157,-215
8610165,-168
8610173,-123
8610180,-107
8610188,-128
8610196,-144
8610204,-120
8610212,-67
8610219,-30
8610227,-31
8610235,-50
8610243,-59
8610251,-50
8610258,-31
8610266,-13
8610274,-10
8610282,-20
8610290,-39
8610298,-59
8610305,-72
8610313,-70
8610321,-61
8610329,-55
8610337,-49
8610344,-34
8610352,-24
8610360,-22
8610368,-33
8610376,-38
8610383,-31
8610391,-34
8610399,-49
8610407,-59
8610415,-58
8610423,-59
8610430,-52
8610438,-43
8610446,-30
8610454,-23
8610462,-30
8610469,-44
8610477,-54
8610485,-59
8610493,-49
8610501,-25
8610508,-16
8610516,-20
8610524,-14
8610532,-9
8610540,-3
8610548,3
8610555,6
8610563,-1
8610571,-9
8610579,-17
8610587,-21
8610594,-22
8610602,-31
8610610,-39
8610618,-39
8610626,-28
8610633,-4
8610641,9
8610649,-8
8610657,-58
8610665,-99
8610673,-104
8610680,-77
8610688,-61
8610696,-52
8610704,-14
8610712,19
8610719,-83
8610727,-374
8610735,-247
8610743,1013
8610751,2593
8610758,2639
8610766,659
8610774,-1640
8610782,-2344
8610790,-1519
8610798,-602
8610805,-383
8610813,-426
8610821,-327
8610829,-220
8610837,-162
8610844,-107
8610852,-85
8610860,-66
8610868,-55
8610876,-50
8610883,-38
8610891,-11
8610899,16
8610907,30
8610915,38
8610923,52
8610930,79
8610938,114
8610946,141
8610954,153
8610962,149
8610969,127
8610977,88
8610985,39
8610993,-15
8611001,-79
8611008,-173
8611016,-284
8611024,-387
8611032,-438
8611040,-430
8611048,-384
8611055,-328
8611063,-265
8611071,-209
8611079,-156
8611087,-119
8611094,-94
8611102,-76
8611110,-64
8611118,-52
8611126,-44
8611133,-41
8611141,-45
8611149,-46
8611157,-44
8611165,-39
8611173,-37
8611180,-44
8611188,-44
8611196,-26
8611204,-22
8611212,-37
8611219,-64
8611227,-77
8611235,-71
8611243,-65
8611251,-69
8611258,-76
8611266,-70
8611274,-53
8611282,-38
8611290,-35
8611298,-44
8611305,-62
8611313,-68
8611321,-57
8611329,-43
8611337,-45
8611344,-53
8611352,-46
8611360,-35
8611368,-28
8611376,-31
8611383,-36
8611391,-35
8611399,-52
8611407,-76
8611415,-81
8611423,-55
8611430,-17
8611438,8
8611446,14
8611454,6
8611462,-9
8611469,-36
8611477,-69
8611485,-97
8611493,-106
8611501,-100
8611508,-101
8611516,-60
8611524,9
8611532,25
8611540,-179
8611548,-391
8611555,283
8611563,1959
8611571,3025
8611579,1966
8611587,-536
8611594,-2244
8611602,-2075
8611610,-1018
8611618,-450
8611626,-448
8611633,-400
8611641,-255
8611649,-184
8611657,-131
8611665,-79
8611673,-42
8611680,-9
8611688,6
8611696,13
8611704,16
8611712,20
8611719,36
8611727,56
8611735,73
8611743,90
8611751,112
8611758,134
8611766,158
8611774,178
8611782,188
8611790,191
8611798,173
8611805,116
8611813,3
8611821,-142
8611829,-293
8611837,-413
8611844,-484
8611852,-491
8611860,-452
8611868,-389
8611876,-324
8611883,-263
8611891,-210
8611899,-164
8611907,-148
8611915,-149
8611923,-138
8611930,-91
8611938,-34
8611946,-8
8611954,-18
8611962,-36
8611969,-38
8611977,-37
8611985,-38
8611993,-41
8612001,-32
8612008,-17
8612016,-10
8612024,-26
8612032,-51
8612040,-67
8612048,-69
8612055,-61
8612063,-38
8612071,-17
8612079,-25
8612087,-63
8612094,-93
8612102,-80
8612110,-58
8612118,-55
8612126,-76
8612133,-88
8612141,-84
8612149,-86
8612157,-104
8612165,-111
8612173,-95
8612180,-70
8612188,-59
8612196,-73
8612204,-88
8612212,-71
8612219,-37
8612227,-1
8612235,23
8612243,25
8612251,6
8612258,-33
8612266,-71
8612274,-90
8612282,-97
8612290,-100
8612298,-118
8612305,-113
8612313,-56
8612321,-7
8612329,-87
8612337,-370
8612344,-295
8612352,961
8612360,2710
8612368,2998
8612376,1055
8612383,-1487
8612391,-2481
8612399,-1729
8612407,-704
8612415,-412
8612423,-464
8612430,-361
8612438,-237
8612446,-166
8612454,-109
8612462,-88
8612469,-70
8612477,-43
8612485,-14
8612493,6
8612501,9
8612508,13
8612516,37
8612524,66
8612532,89
8612540,108
8612548,145
8612555,184
8612563,218
8612571,234
8612579,228
8612587,199
8612594,158
8612602,93
8612610,-29
8612618,-208
8612626,-383
8612633,-509
8612641,-543
8612649,-515
8612657,-450
8612665,-376
8612673,-305
8612680,-253
8612688,-208
8612696,-161
8612704,-126
8612712,-112
8612719,-92
8612727,-53
8612735,-11
8612743,10
8612751,9
8612758,8
8612766,23
8612774,30
8612782,8
8612790,-27
8612798,-39
8612805,-26
8612813,-16
8612821,-34
8612829,-66
8612837,-74
8612844,-60
8612852,-48
8612860,-47
8612868,-49
8612876,-51
8612883,-52
8612891,-45
8612899,-35
8612907,-35
8612915,-46
8612923,-46
8612930,-22
8612938,6
8612946,17
8612954,1
8612962,-30
8612969,-62
8612977,-89
8612985,-103
8612993,-89
8613001,-59
8613008,-56
8613016,-33
8613024,9
8613032,0
8613040,-205
8613048,-446
8613055,128
8613063,1793
8613071,3043
8613079,2220
8613087,-256
8613094,-2184
8613102,-2217
8613110,-1160
8613118,-464
8613126,-408
8613133,-385
8613141,-250
8613149,-190
8613157,-148
8613165,-93
8613173,-52
8613180,-33
8613188,-34
8613196,-24
8613204,1
8613212,24
8613219,33
8613227,49
8613235,66
8613243,69
8613251,71
8613258,112
8613266,186
8613274,239
8613282,246
8613290,207
8613298,140
8613305,52
8613313,-60
8613321,-196
8613329,-336
8613337,-442
8613344,-491
8613352,-471
8613360,-419
8613368,-367
8613376,-303
8613383,-235
8613391,-190
8613399,-184
8613407,-177
8613415,-130
8613423,-59
8613430,-15
8613438,-6
8613446,-18
8613454,-18
8613462,-21
8613469,-28
8613477,-28
8613485,-30
8613493,-44
8613501,-44
8613508,-30
8613516,-22
8613524,-46
8613532,-66
8613540,-76
8613548,-110
8613555,-175
8613563,-187
8613571,-96
8613579,14
8613587,25
8613594,-53
8613602,-109
8613610,-87
8613618,-46
8613626,-49
8613633,-84
8613641,-83
8613649,-30
8613657,39
8613665,69
8613673,50
8613680,1
8613688,-51
8613696,-87
8613704,-106
8613712,-99
8613719,-91
8613727,-114
8613735,-94
8613743,-10
8613751,59
8613758,-37
8613766,-282
8613774,83
8613782,1578
8613790,3012
8613798,2564
8613805,227
8613813,-1950
8613821,-2317
8613829,-1358
8613837,-565
8613844,-464
8613852,-466
8613860,-322
8613868,-232
8613876,-175
8613883,-108
8613891,-59
8613899,-21
8613907,-12
8613915,-12
8613923,-3
8613930,24
8613938,63
8613946,89
8613954,103
8613962,119
8613969,141
8613977,138
8613985,123
8613993,119
8614001,140
8614008,182
8614016,197
8614024,146
8614032,22
8614040,-125
8614048,-251
8614055,-356
8614063,-462
8614071,-535
8614079,-521
8614087,-416
8614094,-299
8614102,-238
8614110,-219
8614118,-180
8614126,-128
8614133,-75
8614141,-44
8614149,-43
8614157,-73
8614165,-69
8614173,-14
8614180,28
8614188,0
8614196,-35
8614204,4
8614212,59
8614219,43
8614227,-24
8614235,-65
8614243,-62
8614251,-84
8614258,-148
8614266,-173
8614274,-91
8614282,-12
8614290,-44
8614298,-126
8614305,-138
8614313,-49
8614321,56
8614329,81
8614337,25
8614344,-17
8614352,-15
8614360,-8
8614368,-44
8614376,-126
8614383,-169
8614391,-135
8614399,-93
8614407,-68
8614415,-7
8614423,17
8614430,-193
8614438,-541
8614446,-188
8614454,1407
8614462,2986
8614469,2648
8614477,343
8614485,-1885
8614493,-2318
8614501,-1391
8614508,-599
8614516,-505
8614524,-510
8614532,-287
8614540,-92
8614548,-17
8614555,2
8614563,44
8614571,164
8614579,324
8614587,503
8614594,703
8614602,889
8614610,1012
8614618,996
8614626,796
8614633,470
8614641,135
8614649,-123
8614657,-265
8614665,-314
8614673,-324
8614680,-324
8614688,-298
8614696,-283
8614704,-376
8614712,-551
8614719,-691
8614727,-719
8614735,-685
8614743,-668
8614751,-625
8614758,-527
8614766,-406
8614774,-315
8614782,-287
8614790,-286
8614798,-265
8614805,-193
8614813,-116
8614821,-85
8614829,-82
8614837,-87
8614844,-79
8614852,-56
8614860,-45
8614868,-46
8614876,-59
8614883,-79
8614891,-83
8614899,-75
8614907,-65
8614915,-48
8614923,-21
8614930,-23
8614938,-54
8614946,-43
8614954,-13
8614962,-22
8614969,-57
8614977,-67
8614985,-38
8614993,-27
8615001,-43
8615008,-58
8615016,-58
8615024,-25
8615032,4
8615040,-25
8615048,-222
8615055,-531
8615063,-154
8615071,1444
8615079,3002
8615087,2594
8615094,232
8615102,-1916
8615110,-2190
8615118,-1202
8615126,-500
8615133,-476
8615141,-454
8615149,-249
8615157,-176
8615165,-161
8615173,-93
8615180,-45
8615188,-68
8615196,-107
8615204,-62
8615212,67
8615219,181
8615227,188
8615235,115
8615243,61
8615251,70
8615258,125
8615266,157
8615274,156
8615282,148
8615290,163
8615298,175
8615305,158
8615313,95
8615321,-27
8615329,-201
8615337,-361
8615344,-454
8615352,-476
8615360,-449
8615368,-382
8615376,-318
8615383,-262
8615391,-205
8615399,-143
8615407,-92
8615415,-72
8615423,-60
8615430,-43
8615438,-53
8615446,-96
8615454,-116
8615462,-65
8615469,-11
8615477,-21
8615485,-67
8615493,-89
8615501,-50
8615508,10
8615516,45
8615524,41
8615532,2
8615540,-32
8615548,-18
8615555,33
8615563,71
8615571,85
8615579,110
8615587,144
8615594,132
8615602,70
8615610,2
8615618,-26
8615626,-29
8615633,-51
8615641,-113
8615649,-155
8615657,-141
8615665,-152
8615673,-375
8615680,-624
8615688,-6
8615696,1688
8615704,2909
8615712,2045
8615719,-381
8615727,-2173
8615735,-2111
8615743,-1066
8615751,-420
8615758,-374
8615766,-342
8615774,-207
8615782,-126
8615790,-72
8615798,-48
8615805,-65
8615813,-79
8615821,-86
8615829,-71
8615837,-40
8615844,-8
8615852,15
8615860,32
8615868,51
8615876,58
8615883,60
8615891,87
8615899,139
8615907,190
8615915,217
8615923,200
8615930,145
8615938,57
8615946,-65
8615954,-208
8615962,-339
8615969,-429
8615977,-451
8615985,-409
8615993,-335
8616001,-265
8616008,-213
8616016,-169
8616024,-130
8616032,-78
8616040,-46
8616048,-31
8616055,-46
8616063,-56
8616071,-43
8616079,-15
8616087,-2
8616094,-14
8616102,-41
8616110,-58
8616118,-57
8616126,-48
8616133,-42
8616141,-35
8616149,-30
8616157,-32
8616165,-56
8616173,-85
8616180,-103
8616188,-96
8616196,-85
8616204,-80
8616212,-72
8616219,-65
8616227,-71
8616235,-82
8616243,-92
8616251,-82
8616258,-25
8616266,52
8616274,94
8616282,67
8616290,-23
8616298,-97
8616305,-99
8616313,-44
8616321,-1
8616329,-19
8616337,-43
8616344,-30
8616352,-21
8616360,-156
8616368,-343
8616376,180
8616383,1735
8616391,2966
8616399,2227
8616407,-179
8616415,-2142
8616423,-2252
8616430,-1208
8616438,-475
8616446,-406
8616454,-394
8616462,-256
8616469,-182
8616477,-146
8616485,-109
8616493,-84
8616501,-66
8616508,-45
8616516,-11
8616524,36
8616532,70
8616540,68
8616548,49
8616555,51
8616563,83
8616571,120
8616579,136
8616587,137
8616594,148
8616602,176
8616610,195
8616618,184
8616626,116
8616633,-2
8616641,-142
8616649,-275
8616657,-377
8616665,-443
8616673,-468
8616680,-439
8616688,-374
8616696,-314
8616704,-271
8616712,-223
8616719,-168
8616727,-133
8616735,-122
8616743,-116
8616751,-78
8616758,-32
8616766,-12
8616774,-29
8616782,-64
8616790,-83
8616798,-68
8616805,-49
8616813,-42
8616821,-58
8616829,-74
8616837,-71
8616844,-29
8616852,15
8616860,17
8616868,-25
8616876,-75
8616883,-87
8616891,-64
8616899,-45
8616907,-62
8616915,-102
8616923,-137
8616930,-152
8616938,-151
8616946,-139
8616954,-102
8616962,-52
8616969,-18
8616977,-16
8616985,-27
8616993,-41
8617001,-55
8617008,-68
8617016,-58
8617024,-38
8617032,-34
8617040,-9
8617048,45
8617055,59
8617063,-109
8617071,-355
8617079,123
8617087,1660
8617094,2884
8617102,2156
8617110,-208
8617118,-2110
8617126,-2187
8617133,-1160
8617141,-450
8617149,-382
8617157,-363
8617165,-225
8617173,-145
8617180,-94
8617188,-61
8617196,-49
8617204,-47
8617212,-46
8617219,-43
8617227,-37
8617235,-25
8617243,-4
8617251,19
8617258,37
8617266,54
8617274,71
8617282,78
8617290,65
8617298,22
8617305,-32
8617313,-98
8617321,-162
8617329,-212
8617337,-251
8617344,-293
8617352,-333
8617360,-366
8617368,-394
8617376,-402
8617383,-346
8617391,-280
8617399,-366
8617407,-648
8617415,-967
8617423,-1256
8617430,-1712
8617438,-2500
8617446,-3456
8617454,-4299
8617462,-4905
8617469,-5234
8617477,-5108
8617485,-4336
8617493,-3006
8617501,-1491
8617508,-97
8617516,1021
8617524,1820
8617532,2317
8617540,2573
8617548,2678
8617555,2697
8617563,2638
8617571,2508
8617579,2354
8617587,2215
8617594,2079
8617602,1924
8617610,1753
8617618,1599
8617626,1472
8617633,1353
8617641,1239
8617649,1144
8617657,1069
8617665,1000
8617673,916
8617680,809
8617688,708
8617696,628
8617704,565
8617712,495
8617719,416
8617727,336
8617735,264
8617743,225
8617751,220
8617758,226
8617766,220
8617774,190
8617782,149
8617790,102
8617798,49
8617805,-3
8617813,-25
8617821,-7
8617829,-3
8617837,-16
8617844,-16
8617852,-27
8617860,-104
8617868,-331
8617876,-231
8617883,933
8617891,2524
8617899,2756
8617907,949
8617915,-1384
8617923,-2310
8617930,-1683
8617938,-826
8617946,-594
8617954,-608
8617962,-455
8617969,-314
8617977,-257
8617985,-205
8617993,-162
8618001,-121
8618008,-82
8618016,-69
8618024,-76
8618032,-72
8618040,-55
8618048,-43
8618055,-49
8618063,-56
8618071,-42
8618079,-12
8618087,22
8618094,50
8618102,82
8618110,97
8618118,82
8618126,59
8618133,41
8618141,11
8618149,-58
8618157,-168
8618165,-295
8618173,-403
8618180,-454
8618188,-445
8618196,-390
8618204,-325
8618212,-278
8618219,-245
8618227,-212
8618235,-186
8618243,-168
8618251,-164
8618258,-149
8618266,-125
8618274,-103
8618282,-106
8618290,-109
8618298,-102
8618305,-98
8618313,-106
8618321,-117
8618329,-120
8618337,-111
8618344,-93
8618352,-82
8618360,-84
8618368,-100
8618376,-120
8618383,-120
8618391,-97
8618399,-69
8618407,-64
8618415,-84
8618423,-107
8618430,-118
8618438,-123
8618446,-109
8618454,-70
8618462,-16
8618469,10
8618477,-22
8618485,-89
8618493,-136
8618501,-139
8618508,-114
8618516,-103
8618524,-126
8618532,-129
8618540,-86
8618548,-45
8618555,-106
8618563,-254
8618571,32
8618579,1132
8618587,2209
8618594,1911
8618602,163
8618610,-1546
8618618,-1902
8618626,-1147
8618633,-446
8618641,-319
8618649,-351
8618657,-261
8618665,-177
8618673,-130
8618680,-106
8618688,-97
8618696,-59
8618704,-10
8618712,26
8618719,39
8618727,18
8618735,-10
8618743,-19
8618751,-3
8618758,28
8618766,57
8618774,87
8618782,117
8618790,149
8618798,167
8618805,155
8618813,122
8618821,84
8618829,28
8618837,-69
8618844,-205
8618852,-334
8618860,-420
8618868,-455
8618876,-450
8618883,-407
8618891,-343
8618899,-286
8618907,-246
8618915,-210
8618923,-176
8618930,-149
8618938,-128
8618946,-112
8618954,-103
8618962,-98
8618969,-98
8618977,-88
8618985,-87
8618993,-94
8619001,-100
8619008,-108
8619016,-114
8619024,-107
8619032,-82
8619040,-50
8619048,-30
8619055,-21
8619063,-28
8619071,-60
8619079,-100
8619087,-121
8619094,-81
8619102,-25
8619110,-26
8619118,-130
8619126,-281
8619133,-400
8619141,-463
8619149,-473
8619157,-456
8619165,-410
8619173,-275
8619180,-96
8619188,26
8619196,-18
8619204,-49
8619212,586
8619219,1927
8619227,2724
8619235,1847
8619243,-154
8619251,-1552
8619258,-1487
8619266,-690
8619274,-244
8619282,-253
8619290,-249
8619298,-140
8619305,-70
8619313,-25
8619321,-15
8619329,-13
8619337,-5
8619344,-3
8619352,-2
8619360,-1
8619368,-1
8619376,3
8619383,6
8619391,28
8619399,62
8619407,97
8619415,111
8619423,121
8619430,137
8619438,148
8619446,123
8619454,72
8619462,20
8619469,-52
8619477,-160
8619485,-290
8619493,-398
8619501,-446
8619508,-442
8619516,-400
8619524,-336
8619532,-281
8619540,-232
8619548,-178
8619555,-114
8619563,-65
8619571,-44
8619579,-52
8619587,-71
8619594,-72
8619602,-48
8619610,-38
8619618,-56
8619626,-104
8619633,-152
8619641,-171
8619649,-167
8619657,-145
8619665,-108
8619673,-77
8619680,-51
8619688,-1
8619696,66
8619704,74
8619712,22
8619719,-26
8619727,-38
8619735,-24
8619743,-4
8619751,12
8619758,23
8619766,0
8619774,-11
8619782,29
8619790,62
8619798,-31
8619805,-245
8619813,-36
8619821,1087
8619829,2345
8619837,2264
8619844,542
8619852,-1377
8619860,-1986
8619868,-1339
8619876,-578
8619883,-356
8619891,-361
8619899,-293
8619907,-236
8619915,-188
8619923,-131
8619930,-101
8619938,-89
8619946,-89
8619954,-103
8619962,-115
8619969,-117
8619977,-94
8619985,-53
8619993,1
8620001,57
8620008,101
8620016,127
8620024,145
8620032,155
8620040,147
8620048,106
8620055,64
8620063,17
8620071,-73
8620079,-205
8620087,-326
8620094,-391
8620102,-410
8620110,-413
8620118,-411
8620126,-401
8620133,-376
8620141,-323
8620149,-245
8620157,-172
8620165,-134
8620173,-123
8620180,-118
8620188,-139
8620196,-218
8620204,-336
8620212,-433
8620219,-462
8620227,-402
8620235,-296
8620243,-190
8620251,-114
8620258,-31
8620266,80
8620274,202
8620282,293
8620290,319
8620298,301
8620305,250
8620313,188
8620321,124
8620329,66
8620337,21
8620344,4
8620352,24
8620360,84
8620368,167
8620376,214
8620383,138
8620391,-86
8620399,37
8620407,1103
8620415,2444
8620423,2471
8620430,693
8620438,-1462
8620446,-2261
8620454,-1613
8620462,-747
8620469,-452
8620477,-426
8620485,-296
8620493,-148
8620501,-42
8620508,24
8620516,46
8620524,59
8620532,78
8620540,89
8620548,94
8620555,89
8620563,87
8620571,85
8620579,85
8620587,98
8620594,130
8620602,165
8620610,176
8620618,173
8620626,187
8620633,202
8620641,196
8620649,144
8620657,41
8620665,-129
8620673,-358
8620680,-607
8620688,-783
8620696,-832
8620704,-738
8620712,-560
8620719,-357
8620727,-172
8620735,-11
8620743,139
8620751,267
8620758,345
8620766,374
8620774,376
8620782,343
8620790,263
8620798,158
8620805,48
8620813,-54
8620821,-147
8620829,-207
8620837,-226
8620844,-202
8620852,-173
8620860,-166
8620868,-171
8620876,-167
8620883,-152
8620891,-130
8620899,-118
8620907,-103
8620915,-80
8620923,-69
8620930,-55
8620938,-24
8620946,-15
8620954,-148
8620962,-405
8620969,-31
8620977,1477
8620985,2958
8620993,2560
8621001,223
8621008,-2008
8621016,-2422
8621024,-1448
8621032,-591
8621040,-434
8621048,-425
8621055,-299
8621063,-217
8621071,-163
8621079,-109
8621087,-66
8621094,-40
8621102,-36
8621110,-44
8621118,-46
8621126,-13
8621133,19
8621141,18
8621149,16
8621157,36
8621165,70
8621173,97
8621180,109
8621188,143
8621196,160
8621204,146
8621212,106
8621219,32
8621227,-79
8621235,-244
8621243,-392
8621251,-444
8621258,-423
8621266,-381
8621274,-353
8621282,-345
8621290,-318
8621298,-270
8621305,-198
8621313,-135
8621321,-108
8621329,-97
8621337,-92
8621344,-65
8621352,-20
8621360,-4
8621368,-13
8621376,-47
8621383,-82
8621391,-89
8621399,-69
8621407,-30
8621415,2
8621423,9
8621430,-7
8621438,-37
8621446,-55
8621454,-70
8621462,-100
8621469,-116
8621477,-116
8621485,-86
8621493,-20
8621501,11
8621508,-87
8621516,-375
8621524,-305
8621532,901
8621540,2591
8621548,2867
8621555,964
8621563,-1526
8621571,-2503
8621579,-1765
8621587,-738
8621594,-390
8621602,-406
8621610,-306
8621618,-209
8621626,-162
8621633,-107
8621641,-64
8621649,-52
8621657,-44
8621665,-5
8621673,64
8621680,95
8621688,89
8621696,72
8621704,78
8621712,102
8621719,119
8621727,144
8621735,183
8621743,215
8621751,214
8621758,187
8621766,150
8621774,84
8621782,-41
8621790,-193
8621798,-330
8621805,-405
8621813,-426
8621821,-410
8621829,-375
8621837,-325
8621844,-260
8621852,-196
8621860,-156
8621868,-132
8621876,-107
8621883,-65
8621891,-16
8621899,6
8621907,7
8621915,11
8621923,16
8621930,22
8621938,2
8621946,-33
8621954,-54
8621962,-44
8621969,-11
8621977,27
8621985,55
8621993,46
8622001,-3
8622008,-59
8622016,-104
8622024,-105
8622032,-65
8622040,-43
8622048,-32
8622055,1
8622063,20
8622071,-102
8622079,-427
8622087,-289
8622094,1106
8622102,2865
8622110,2943
8622118,786
8622126,-1723
8622133,-2520
8622141,-1655
8622149,-688
8622157,-463
8622165,-499
8622173,-380
8622180,-277
8622188,-211
8622196,-144
8622204,-115
8622212,-99
8622219,-75
8622227,-61
8622235,-45
8622243,-25
8622251,20
8622258,92
8622266,157
8622274,186
8622282,182
8622290,163
8622298,140
8622305,117
8622313,103
8622321,104
8622329,103
8622337,57
8622344,-54
8622352,-199
8622360,-324
8622368,-389
8622376,-395
8622383,-365
8622391,-323
8622399,-275
8622407,-232
8622415,-195
8622423,-157
8622430,-106
8622438,-47
8622446,-17
8622454,-29
8622462,-47
8622469,-29
8622477,8
8622485,8
8622493,-33
8622501,-76
8622508,-86
8622516,-68
8622524,-63
8622532,-92
8622540,-137
8622548,-142
8622555,-105
8622563,-56
8622571,-46
8622579,-72
8622587,-115
8622594,-133
8622602,-115
8622610,-77
8622618,-37
8622626,-21
8622633,-42
8622641,-40
8622649,-1
8622657,19
8622665,-114
8622673,-387
8622680,-72
8622688,1373
8622696,2836
8622704,2501
8622712,249
8622719,-1926
8622727,-2314
8622735,-1322
8622743,-491
8622751,-408
8622758,-468
8622766,-328
8622774,-185
8622782,-102
8622790,-49
8622798,-21
8622805,13
8622813,38
8622821,51
8622829,67
8622837,85
8622844,93
8622852,86
8622860,75
8622868,86
8622876,110
8622883,140
8622891,179
8622899,215
8622907,231
8622915,211
8622923,153
8622930,56
8622938,-74
8622946,-216
8622954,-340
8622962,-417
8622969,-431
8622977,-396
8622985,-326
8622993,-255
8623001,-205
8623008,-183
8623016,-161
8623024,-116
8623032,-69
8623040,-39
8623048,-38
8623055,-62
8623063,-78
8623071,-75
8623079,-58
8623087,-36
8623094,-34
8623102,-56
8623110,-73
8623118,-77
8623126,-70
8623133,-72
8623141,-78
8623149,-87
8623157,-103
8623165,-116
8623173,-132
8623180,-134
8623188,-119
8623196,-102
8623204,-106
8623212,-132
8623219,-149
8623227,-141
8623235,-109
8623243,-87
8623251,-93
8623258,-103
8623266,-98
8623274,-68
8623282,-34
8623290,-13
8623298,-20
8623305,-52
8623313,-89
8623321,-103
8623329,-69
8623337,-6
8623344,35
8623352,43
8623360,71
8623368,100
8623376,33
8623383,-259
8623391,-297
8623399,796
8623407,2543
8623415,3012
8623423,1235
8623430,-1321
8623438,-2453
8623446,-1800
8623454,-775
8623462,-445
8623469,-473
8623477,-329
8623485,-172
8623493,-128
8623501,-104
8623508,-83
8623516,-73
8623524,-73
8623532,-84
8623540,-78
8623548,-48
8623555,-16
8623563,1
8623571,16
8623579,16
8623587,22
8623594,44
8623602,84
8623610,116
8623618,127
8623626,127
8623633,132
8623641,127
8623649,84
8623657,-1
8623665,-107
8623673,-212
8623680,-313
8623688,-374
8623696,-364
8623704,-308
8623712,-257
8623719,-232
8623727,-211
8623735,-192
8623743,-191
8623751,-222
8623758,-255
8623766,-234
8623774,-161
8623782,-83
8623790,-23
8623798,13
8623805,39
8623813,63
8623821,81
8623829,77
8623837,52
8623844,26
8623852,4
8623860,-10
8623868,-22
8623876,-28
8623883,-25
8623891,-14
8623899,-11
8623907,-23
8623915,-42
8623923,-44
8623930,-24
8623938,-10
8623946,-6
8623954,-15
8623962,-26
8623969,-36
8623977,-48
8623985,-62
8623993,-74
8624001,-80
8624008,-70
8624016,-60
8624024,-60
8624032,-65
8624040,-52
8624048,-35
8624055,-41
8624063,-74
8624071,-107
8624079,-125
8624087,-114
8624094,-85
8624102,-46
8624110,-19
8624118,-14
8624126,-24
8624133,-35
8624141,-40
8624149,-61
8624157,-101
8624165,-132
8624173,-141
8624180,-142
8624188,-98
8624196,-39
8624204,-47
8624212,-267
8624219,-516
8624227,96
8624235,1848
8624243,3171
8624251,2346
8624258,-205
8624266,-2214
8624274,-2301
8624282,-1256
8624290,-553
8624298,-480
8624305,-445
8624313,-295
8624321,-202
8624329,-137
8624337,-74
8624344,-21
8624352,34
8624360,51
8624368,33
8624376,14
8624383,11
8624391,14
8624399,22
8624407,35
8624415,60
8624423,78
8624430,97
8624438,117
8624446,140
8624454,151
8624462,143
8624469,116
8624477,80
8624485,21
8624493,-65
8624501,-181
8624508,-297
8624516,-388
8624524,-428
8624532,-420
8624540,-374
8624548,-314
8624555,-264
8624563,-223
8624571,-185
8624579,-148
8624587,-113
8624594,-102
8624602,-95
8624610,-71
8624618,-45
8624626,-64
8624633,-118
8624641,-157
8624649,-153
8624657,-134
8624665,-123
8624673,-98
8624680,-42
8624688,6
8624696,18
8624704,18
8624712,24
8624719,29
8624727,18
8624735,-2
8624743,-33
8624751,-58
8624758,-88
8624766,-115
8624774,-119
8624782,-94
8624790,-49
8624798,2
8624805,30
8624813,51
8624821,71
8624829,77
8624837,64
8624844,58
8624852,61
8624860,55
8624868,26
8624876,-3
8624883,-26
8624891,-48
8624899,-75
8624907,-81
8624915,-53
8624923,-27
8624930,-24
8624938,-24
8624946,-20
8624954,-28
8624962,-33
8624969,-13
8624977,26
8624985,46
8624993,27
8625001,-12
8625008,-52
8625016,-83
8625024,-104
8625032,-88
8625040,-63
8625048,-61
8625055,-14
8625063,60
8625071,60
8625079,-179
8625087,-489
8625094,47
8625102,1766
8625110,3152
8625118,2417
8625126,-114
8625133,-2198
8625141,-2358
8625149,-1318
8625157,-593
8625165,-530
8625173,-497
8625180,-304
8625188,-179
8625196,-137
8625204,-140
8625212,-151
8625219,-128
8625227,-92
8625235,-83
8625243,-78
8625251,-47
8625258,15
8625266,74
8625274,108
8625282,109
8625290,91
8625298,85
8625305,114
8625313,171
8625321,213
8625329,193
8625337,105
8625344,3
8625352,-66
8625360,-128
8625368,-217
8625376,-328
8625383,-426
8625391,-473
8625399,-461
8625407,-410
8625415,-340
8625423,-275
8625430,-225
8625438,-183
8625446,-146
8625454,-109
8625462,-84
8625469,-71
8625477,-54
8625485,-31
8625493,-19
8625501,-25
8625508,-34
8625516,-30
8625524,-24
8625532,-29
8625540,-56
8625548,-77
8625555,-82
8625563,-78
8625571,-89
8625579,-96
8625587,-84
8625594,-60
8625602,-51
8625610,-66
8625618,-84
8625626,-78
8625633,-66
8625641,-45
8625649,-23
8625657,-23
8625665,-42
8625673,-69
8625680,-98
8625688,-90
8625696,-40
8625704,39
8625712,96
8625719,88
8625727,28
8625735,-41
8625743,-88
8625751,-116
8625758,-119
8625766,-94
8625774,-87
8625782,-62
8625790,-4
8625798,5
8625805,-175
8625813,-472
8625821,-68
8625829,1543
8625837,3052
8625844,2586
8625852,180
8625860,-2027
8625868,-2365
8625876,-1362
8625883,-548
8625891,-435
8625899,-427
8625907,-271
8625915,-182
8625923,-148
8625930,-118
8625938,-83
8625946,-36
8625954,-5
8625962,6
8625969,16
8625977,31
8625985,53
8625993,66
8626001,90
8626008,121
8626016,160
8626024,201
8626032,236
8626040,260
8626048,249
8626055,203
8626063,154
8626071,118
8626079,52
8626087,-79
8626094,-258
8626102,-407
8626110,-486
8626118,-513
8626126,-509
8626133,-461
8626141,-385
8626149,-303
8626157,-246
8626165,-209
8626173,-182
8626180,-151
8626188,-124
8626196,-98
8626204,-79
8626212,-69
8626219,-67
8626227,-63
8626235,-70
8626243,-96
8626251,-122
8626258,-134
8626266,-119
8626274,-82
8626282,-50
8626290,-37
8626298,-40
8626305,-34
8626313,0
8626321,41
8626329,42
8626337,-10
8626344,-62
8626352,-66
8626360,-23
8626368,8
8626376,-8
8626383,-44
8626391,-59
8626399,-52
8626407,-37
8626415,-27
8626423,-3
8626430,36
8626438,85
8626446,116
8626454,108
8626462,64
8626469,7
8626477,-33
8626485,-61
8626493,-63
8626501,-51
8626508,-47
8626516,-22
8626524,10
8626532,-23
8626540,-222
8626548,-450
8626555,84
8626563,1674
8626571,2916
8626579,2169
8626587,-219
8626594,-2138
8626602,-2235
8626610,-1238
8626618,-555
8626626,-494
8626633,-474
8626641,-315
8626649,-207
8626657,-143
8626665,-109
8626673,-117
8626680,-123
8626688,-110
8626696,-68
8626704,-18
8626712,25
8626719,52
8626727,58
8626735,66
8626743,88
8626751,130
8626758,172
8626766,212
8626774,234
8626782,239
8626790,218
8626798,188
8626805,147
8626813,83
8626821,-41
8626829,-204
8626837,-361
8626844,-452
8626852,-491
8626860,-477
8626868,-421
8626876,-336
8626883,-254
8626891,-187
8626899,-141
8626907,-115
8626915,-99
8626923,-85
8626930,-66
8626938,-41
8626946,-29
8626954,-30
8626962,-35
8626969,-41
8626977,-32
8626985,-6
8626993,18
8627001,15
8627008,-10
8627016,-26
8627024,-7
8627032,15
8627040,0
8627048,-38
8627055,-53
8627063,-44
8627071,-46
8627079,-81
8627087,-102
8627094,-85
8627102,-54
8627110,-56
8627118,-79
8627126,-83
8627133,-68
8627141,-67
8627149,-95
8627157,-128
8627165,-124
8627173,-87
8627180,-28
8627188,39
8627196,91
8627204,77
8627212,6
8627219,-68
8627227,-94
8627235,-93
8627243,-108
8627251,-91
8627258,-23
8627266,-28
8627274,-282
8627282,-482
8627290,340
8627298,2137
8627305,3100
8627313,1793
8627321,-824
8627329,-2428
8627337,-2108
8627344,-1034
8627352,-539
8627360,-563
8627368,-474
8627376,-292
8627383,-210
8627391,-150
8627399,-85
8627407,-46
8627415,-36
8627423,-13
8627430,58
8627438,106
8627446,86
8627454,42
8627462,51
8627469,108
8627477,145
8627485,154
8627493,179
8627501,217
8627508,234
8627516,238
8627524,242
8627532,213
8627540,144
8627548,32
8627555,-98
8627563,-236
8627571,-366
8627579,-467
8627587,-512
8627594,-502
8627602,-461
8627610,-408
8627618,-343
8627626,-293
8627633,-253
8627641,-199
8627649,-120
8627657,-59
8627665,-45
8627673,-55
8627680,-60
8627688,-62
8627696,-67
8627704,-56
8627712,-9
8627719,27
8627727,-3
8627735,-58
8627743,-65
8627751,-47
8627758,-34
8627766,-40
8627774,-57
8627782,-76
8627790,-102
8627798,-106
8627805,-70
8627813,-38
8627821,-72
8627829,-110
8627837,-72
8627844,21
8627852,73
8627860,31
8627868,-80
8627876,-174
8627883,-183
8627891,-124
8627899,-44
8627907,23
8627915,58
8627923,97
8627930,136
8627938,151
8627946,130
8627954,78
8627962,43
8627969,39
8627977,21
8627985,-10
8627993,-23
8628001,-55
8628008,-220
8628016,-524
8628024,-232
8628032,1286
8628040,2909
8628048,2681
8628055,399
8628063,-1890
8628071,-2398
8628079,-1480
8628087,-624
8628094,-415
8628102,-339
8628110,-169
8628118,-125
8628126,-153
8628133,-126
8628141,-89
8628149,-58
8628157,-19
8628165,26
8628173,46
8628180,32
8628188,12
8628196,28
8628204,73
8628212,113
8628219,111
8628227,110
8628235,142
8628243,198
8628251,243
8628258,254
8628266,230
8628274,206
8628282,164
8628290,47
8628298,-155
8628305,-387
8628313,-554
8628321,-598
8628329,-518
8628337,-398
8628344,-329
8628352,-311
8628360,-289
8628368,-235
8628376,-184
8628383,-165
8628391,-158
8628399,-128
8628407,-117
8628415,-170
8628423,-202
8628430,-125
8628438,-31
8628446,-58
8628454,-132
8628462,-75
8628469,115
8628477,251
8628485,184
8628493,2
8628501,-125
8628508,-156
8628516,-177
8628524,-259
8628532,-329
8628540,-264
8628548,-72
8628555,84
8628563,91
8628571,-4
8628579,-112
8628587,-164
8628594,-162
8628602,-122
8628610,-51
8628618,3
8628626,29
8628633,72
8628641,108
8628649,28
8628657,-165
8628665,-267
8628673,-131
8628680,103
8628688,219
8628696,169
8628704,47
8628712,-194
8628719,-447
8628727,151
8628735,1962
8628743,3474
8628751,2809
8628758,260
8628766,-1911
8628774,-2189
8628782,-1245
8628790,-544
8628798,-492
8628805,-469
8628813,-207
8628821,88
8628829,240
8628837,196
8628844,104
8628852,152
8628860,254
8628868,231
8628876,107
8628883,36
8628891,93
8628899,241
8628907,394
8628915,471
8628923,481
8628930,454
8628938,397
8628946,296
8628954,178
8628962,97
8628969,59
8628977,63
8628985,72
8628993,-19
8629001,-259
8629008,-526
8629016,-660
8629024,-684
8629032,-735
8629040,-826
8629048,-776
8629055,-533
8629063,-324
8629071,-331
8629079,-421
8629087,-397
8629094,-316
8629102,-291
8629110,-325
8629118,-294
8629126,-195
8629133,-139
8629141,-171
8629149,-236
8629157,-281
8629165,-268
8629173,-203
8629180,-122
8629188,-75
8629196,-78
8629204,-82
8629212,-90
8629219,-150
8629227,-232
8629235,-260
8629243,-242
8629251,-243
8629258,-191
8629266,0
8629274,222
8629282,265
8629290,81
8629298,-133
8629305,-201
8629313,-199
8629321,-228
8629329,-228
8629337,-163
8629344,-61
8629352,42
8629360,86
8629368,-30
8629376,-358
8629383,-293
8629391,1020
8629399,2869
8629407,3200
8629415,1159
8629423,-1591
8629430,-2716
8629438,-1909
8629446,-730
8629454,-362
8629462,-470
8629469,-403
8629477,-216
8629485,-100
8629493,-133
8629501,-217
8629508,-149
8629516,25
8629524,108
8629532,32
8629540,-93
8629548,-96
8629555,35
8629563,140
8629571,139
8629579,112
8629587,138
8629594,188
8629602,225
8629610,211
8629618,127
8629626,60
8629633,92
8629641,121
8629649,8
8629657,-236
8629665,-424
8629673,-427
8629680,-396
8629688,-474
8629696,-572
8629704,-560
8629712,-465
8629719,-379
8629727,-344
8629735,-355
8629743,-386
8629751,-396
8629758,-362
8629766,-299
8629774,-317
8629782,-444
8629790,-543
8629798,-588
8629805,-637
8629813,-656
8629821,-535
8629829,-273
8629837,-34
8629844,25
8629852,-44
8629860,-68
8629868,-19
8629876,-51
8629883,-242
8629891,-480
8629899,-606
8629907,-563
8629915,-462
8629923,-394
8629930,-379
8629938,-372
8629946,-314
8629954,-183
8629962,-16
8629969,104
8629977,99
8629985,12
8629993,-47
8630001,-48
8630008,-56
8630016,-71
8630024,-74
8630032,-29
8630040,25
8630048,-11
8630055,-164
8630063,-296
8630071,215
8630079,1715
8630087,3130
8630094,2850
8630102,786
8630110,-1309
8630118,-1841
8630126,-1053
8630133,-257
8630141,-62
8630149,-39
8630157,91
8630165,197
8630173,291
8630180,406
8630188,448
8630196,385
8630204,282
8630212,271
8630219,379
8630227,477
8630235,483
8630243,442
8630251,446
8630258,469
8630266,429
8630274,361
8630282,363
8630290,401
8630298,360
8630305,246
8630313,181
8630321,214
8630329,223
8630337,73
8630344,-192
8630352,-429
8630360,-551
8630368,-550
8630376,-442
8630383,-286
8630391,-155
8630399,-64
8630407,5
8630415,56
8630423,82
8630430,68
8630438,43
8630446,31
8630454,45
8630462,73
8630469,80
8630477,60
8630485,35
8630493,39
8630501,71
8630508,127
8630516,197
8630524,230
8630532,181
8630540,59
8630548,-44
8630555,-72
8630563,-66
8630571,-82
8630579,-105
8630587,-98
8630594,-71
8630602,-34
8630610,6
8630618,23
8630626,7
8630633,-38
8630641,-100
8630649,-155
8630657,-193
8630665,-189
8630673,-133
8630680,-82
8630688,-43
8630696,-23
8630704,-76
8630712,-291
8630719,-471
8630727,194
8630735,1921
8630743,3209
8630751,2379
8630758,-184
8630766,-2269
8630774,-2432
8630782,-1385
8630790,-613
8630798,-528
8630805,-526
8630813,-360
8630821,-232
8630829,-169
8630837,-164
8630844,-177
8630852,-135
8630860,-69
8630868,-21
8630876,3
8630883,10
8630891,11
8630899,35
8630907,74
8630915,89
8630923,79
8630930,77
8630938,94
8630946,113
8630954,117
8630962,85
8630969,38
8630977,-14
8630985,-105
8630993,-251
8631001,-397
8631008,-494
8631016,-509
8631024,-481
8631032,-443
8631040,-414
8631048,-383
8631055,-346
8631063,-304
8631071,-238
8631079,-171
8631087,-124
8631094,-93
8631102,-78
8631110,-57
8631118,-33
8631126,-27
8631133,-29
8631141,-21
8631149,-17
8631157,-42
8631165,-79
8631173,-96
8631180,-78
8631188,-44
8631196,-21
8631204,-22
8631212,-46
8631219,-71
8631227,-69
8631235,-50
8631243,-58
8631251,-69
8631258,-48
8631266,-20
8631274,-11
8631282,-39
8631290,-77
8631298,-114
8631305,-140
8631313,-132
8631321,-119
8631329,-117
8631337,-90
8631344,-61
8631352,-120
8631360,-375
8631368,-351
8631376,811
8631383,2605
8631391,3097
8631399,1308
8631407,-1309
8631415,-2512
8631423,-1883
8631430,-798
8631438,-399
8631446,-430
8631454,-347
8631462,-231
8631469,-177
8631477,-128
8631485,-103
8631493,-90
8631501,-83
8631508,-80
8631516,-65
8631524,-32
8631532,8
8631540,35
8631548,34
8631555,51
8631563,95
8631571,143
8631579,155
8631587,147
8631594,156
8631602,193
8631610,217
8631618,186
8631626,101
8631633,-10
8631641,-161
8631649,-328
8631657,-434
8631665,-450
8631673,-413
8631680,-389
8631688,-384
8631696,-359
8631704,-291
8631712,-215
8631719,-145
8631727,-89
8631735,-71
8631743,-87
8631751,-88
8631758,-68
8631766,-52
8631774,-52
8631782,-68
8631790,-81
8631798,-88
8631805,-91
8631813,-77
8631821,-51
8631829,-30
8631837,-43
8631844,-82
8631852,-119
8631860,-133
8631868,-124
8631876,-96
8631883,-60
8631891,-9
8631899,28
8631907,11
8631915,-49
8631923,-76
8631930,-54
8631938,-9
8631946,10
8631954,6
8631962,-38
8631969,-91
8631977,-75
8631985,-33
8631993,-75
8632001,-341
8632008,-510
8632016,333
8632024,2137
8632032,3132
8632040,1872
8632048,-753
8632055,-2433
8632063,-2169
8632071,-1063
8632079,-485
8632087,-480
8632094,-407
8632102,-228
8632110,-127
8632118,-73
8632126,-48
8632133,-33
8632141,-13
8632149,-11
8632157,-8
8632165,18
8632173,58
8632180,82
8632188,77
8632196,68
8632204,76
8632212,96
8632219,126
8632227,155
8632235,175
8632243,179
8632251,161
8632258,136
8632266,108
8632274,47
8632282,-91
8632290,-280
8632298,-443
8632305,-503
8632313,-449
8632321,-344
8632329,-268
8632337,-226
8632344,-184
8632352,-115
8632360,-29
8632368,8
8632376,-10
8632383,-36
8632391,-49
8632399,-57
8632407,-59
8632415,-54
8632423,-34
8632430,-13
8632438,-10
8632446,-17
8632454,-24
8632462,-39
8632469,-52
8632477,-58
8632485,-49
8632493,-30
8632501,-26
8632508,-67
8632516,-138
8632524,-213
8632532,-251
8632540,-231
8632548,-131
8632555,12
8632563,102
8632571,74
8632579,-23
8632587,-96
8632594,-87
8632602,-36
8632610,-31
8632618,-75
8632626,-83
8632633,-76
8632641,-139
8632649,-366
8632657,-393
8632665,631
8632673,2413
8632680,3131
8632688,1603
8632696,-975
8632704,-2370
8632712,-1918
8632719,-880
8632727,-477
8632735,-537
8632743,-468
8632751,-331
8632758,-265
8632766,-199
8632774,-120
8632782,-48
8632790,-23
8632798,-56
8632805,-70
8632813,-31
8632821,49
8632829,130
8632837,194
8632844,231
8632852,246
8632860,241
8632868,240
8632876,252
8632883,255
8632891,226
8632899,169
8632907,90
8632915,10
8632923,-86
8632930,-218
8632938,-368
8632946,-484
8632954,-520
8632962,-477
8632969,-397
8632977,-301
8632985,-221
8632993,-160
8633001,-145
8633008,-141
8633016,-135
8633024,-94
8633032,-27
8633040,14
8633048,-12
8633055,-75
8633063,-123
8633071,-127
8633079,-100
8633087,-57
8633094,-20
8633102,8
8633110,-1
8633118,-35
8633126,-51
8633133,-46
8633141,-58
8633149,-83
8633157,-101
8633165,-78
8633173,-35
8633180,3
8633188,0
8633196,-34
8633204,-76
8633212,-102
8633219,-115
8633227,-113
8633235,-112
8633243,-111
8633251,-65
8633258,26
8633266,57
8633274,-100
8633282,-361
8633290,-3
8633298,1449
8633305,2868
8633313,2527
8633321,360
8633329,-1754
8633337,-2211
8633344,-1368
8633352,-605
8633360,-474
8633368,-471
8633376,-307
8633383,-179
8633391,-140
8633399,-123
8633407,-104
8633415,-95
8633423,-137
8633430,-174
8633438,-128
8633446,-15
8633454,50
8633462,43
8633469,17
8633477,17
8633485,58
8633493,141
8633501,235
8633508,280
8633516,266
8633524,238
8633532,213
8633540,139
8633548,-32
8633555,-226
8633563,-353
8633571,-403
8633579,-422
8633587,-448
8633594,-470
8633602,-460
8633610,-407
8633618,-347
8633626,-298
8633633,-246
8633641,-179
8633649,-103
8633657,-36
8633665,-5
8633673,-14
8633680,-22
8633688,12
8633696,58
8633704,77
8633712,50
8633719,19
8633727,14
8633735,15
8633743,4
8633751,-17
8633758,-42
8633766,-49
8633774,-25
8633782,8
8633790,10
8633798,-35
8633805,-81
8633813,-87
8633821,-80
8633829,-114
8633837,-164
8633844,-180
8633852,-147
8633860,-53
8633868,41
8633876,29
8633883,-157
8633891,-301
8633899,350
8633907,1883
8633915,2845
8633923,1874
8633930,-450
8633938,-2094
8633946,-1991
8633954,-964
8633962,-313
8633969,-260
8633977,-256
8633985,-158
8633993,-101
8634001,-50
8634008,-33
8634016,-62
8634024,-83
8634032,-68
8634040,-18
8634048,36
8634055,64
8634063,54
8634071,35
8634079,43
8634087,51
8634094,53
8634102,55
8634110,68
8634118,82
8634126,82
8634133,62
8634141,37
8634149,-4
8634157,-80
8634165,-206
8634173,-338
8634180,-428
8634188,-449
8634196,-424
8634204,-386
8634212,-335
8634219,-277
8634227,-213
8634235,-159
8634243,-123
8634251,-102
8634258,-96
8634266,-93
8634274,-68
8634282,-40
8634290,-37
8634298,-37
8634305,-12
8634313,14
8634321,1
8634329,-46
8634337,-76
8634344,-89
8634352,-104
8634360,-141
8634368,-154
8634376,-128
8634383,-69
8634391,-14
8634399,14
8634407,20
8634415,9
8634423,-3
8634430,-15
8634438,-19
8634446,-26
8634454,-45
8634462,-20
8634469,23
8634477,-16
8634485,-248
8634493,-315
8634501,615
8634508,2312
8634516,3027
8634524,1575
8634532,-944
8634540,-2343
8634548,-1926
8634555,-889
8634563,-444
8634571,-473
8634579,-392
8634587,-240
8634594,-172
8634602,-126
8634610,-86
8634618,-60
8634626,-53
8634633,-66
8634641,-50
8634649,8
8634657,80
8634665,116
8634673,117
8634680,137
8634688,188
8634696,225
8634704,199
8634712,124
8634719,64
8634727,69
8634735,129
8634743,186
8634751,174
8634758,38
8634766,-189
8634774,-387
8634782,-476
8634790,-471
8634798,-422
8634805,-350
8634813,-264
8634821,-195
8634829,-163
8634837,-145
8634844,-106
8634852,-61
8634860,-43
8634868,-54
8634876,-69
8634883,-77
8634891,-98
8634899,-116
8634907,-118
8634915,-106
8634923,-101
8634930,-117
8634938,-134
8634946,-140
8634954,-129
8634962,-99
8634969,-78
8634977,-72
8634985,-64
8634993,-48
8635001,-40
8635008,-50
8635016,-49
8635024,-41
8635032,-8
8635040,54
8635048,83
8635055,-30
8635063,-373
8635071,-377
8635079,868
8635087,2736
8635094,3173
8635102,1243
8635110,-1440
8635118,-2588
8635126,-1868
8635133,-779
8635141,-423
8635149,-463
8635157,-368
8635165,-256
8635173,-208
8635180,-162
8635188,-121
8635196,-54
8635204,30
8635212,84
8635219,93
8635227,77
8635235,73
8635243,82
8635251,90
8635258,89
8635266,89
8635274,107
8635282,134
8635290,157
8635298,157
8635305,123
8635313,68
8635321,18
8635329,-47
8635337,-152
8635344,-267
8635352,-329
8635360,-319
8635368,-293
8635376,-280
8635383,-269
8635391,-257
8635399,-232
8635407,-159
8635415,-52
8635423,4
8635430,-49
8635438,-128
8635446,-124
8635454,-49
8635462,2
8635469,-11
8635477,-34
8635485,-59
8635493,-115
8635501,-163
8635508,-135
8635516,-18
8635524,98
8635532,124
8635540,71
8635548,6
8635555,-37
8635563,-56
8635571,-74
8635579,-89
8635587,-100
8635594,-117
8635602,-130
8635610,-93
8635618,-44
8635626,-106
8635633,-391
8635641,-374
8635649,811
8635657,2612
8635665,3089
8635673,1273
8635680,-1334
8635688,-2482
8635696,-1812
8635704,-763
8635712,-446
8635719,-526
8635727,-410
8635735,-213
8635743,-118
8635751,-114
8635758,-140
8635766,-137
8635774,-107
8635782,-77
8635790,-68
8635798,-73
8635805,-66
8635813,-49
8635821,-24
8635829,-30
8635837,-99
8635844,-181
8635852,-204
8635860,-170
8635868,-97
8635876,-14
8635883,60
8635891,105
8635899,94
8635907,36
8635915,-53
8635923,-156
8635930,-235
8635938,-256
8635946,-196
8635954,-127
8635962,-95
8635969,-88
8635977,-65
8635985,-29
8635993,8
8636001,17
8636008,9
8636016,-6
8636024,-3
8636032,14
8636040,22
8636048,11
8636055,-11
8636063,4
8636071,58
8636079,95
8636087,75
8636094,15
8636102,-46
8636110,-78
8636118,-84
8636126,-83
8636133,-65
8636141,-44
8636149,-46
8636157,-81
8636165,-114
8636173,-94
8636180,-65
8636188,-99
8636196,-327
8636204,-505
8636212,253
8636219,1993
8636227,3079
8636235,2008
8636243,-509
8636251,-2222
8636258,-2040
8636266,-971
8636274,-400
8636282,-424
8636290,-421
8636298,-311
8636305,-239
8636313,-166
8636321,-103
8636329,-68
8636337,-30
8636344,8
8636352,27
8636360,30
8636368,38
8636376,60
8636383,91
8636391,114
8636399,120
8636407,129
8636415,143
8636423,143
8636430,132
8636438,103
8636446,69
8636454,43
8636462,9
8636469,-66
8636477,-179
8636485,-298
8636493,-403
8636501,-436
8636508,-397
8636516,-319
8636524,-245
8636532,-211
8636540,-199
8636548,-154
8636555,-86
8636563,-47
8636571,-49
8636579,-64
8636587,-70
8636594,-70
8636602,-86
8636610,-128
8636618,-191
8636626,-256
8636633,-287
8636641,-257
8636649,-192
8636657,-141
8636665,-128
8636673,-141
8636680,-144
8636688,-134
8636696,-131
8636704,-119
8636712,-68
8636719,-18
8636727,23
8636735,66
8636743,84
8636751,-5
8636758,-224
8636766,1
8636774,1292
8636782,2793
8636790,2743
8636798,733
8636805,-1546
8636813,-2270
8636821,-1513
8636829,-664
8636837,-463
8636844,-448
8636852,-253
8636860,-73
8636868,-7
8636876,5
8636883,0
8636891,2
8636899,-11
8636907,-6
8636915,35
8636923,67
8636930,38
8636938,-21
8636946,-37
8636954,11
8636962,88
8636969,146
8636977,155
8636985,132
8636993,98
8637001,65
8637008,17
8637016,-70
8637024,-198
8637032,-337
8637040,-462
8637048,-565
8637055,-606
8637063,-573
8637071,-496
8637079,-385
8637087,-233
8637094,-68
8637102,50
8637110,83
8637118,85
8637126,99
8637133,118
8637141,105
8637149,56
8637157,3
8637165,-27
8637173,-25
8637180,-9
8637188,-13
8637196,-33
8637204,-36
8637212,-2
8637219,33
8637227,11
8637235,-29
8637243,-42
8637251,-25
8637258,-6
8637266,7
8637274,6
8637282,-17
8637290,-18
8637298,28
8637305,46
8637313,-97
8637321,-377
8637329,-39
8637337,1446
8637344,2905
8637352,2515
8637360,227
8637368,-1952
8637376,-2337
8637383,-1356
8637391,-525
8637399,-410
8637407,-428
8637415,-267
8637423,-112
8637430,-23
8637438,13
8637446,11
8637454,-10
8637462,-34
8637469,-46
8637477,-19
8637485,28
8637493,72
8637501,88
8637508,92
8637516,87
8637524,87
8637532,94
8637540,126
8637548,154
8637555,161
8637563,137
8637571,81
8637579,8
8637587,-68
8637594,-166
8637602,-288
8637610,-402
8637618,-474
8637626,-476
8637633,-429
8637641,-366
8637649,-302
8637657,-241
8637665,-186
8637673,-151
8637680,-136
8637688,-148
8637696,-164
8637704,-146
8637712,-98
8637719,-51
8637727,-19
8637735,-40
8637743,-125
8637751,-238
8637758,-312
8637766,-297
8637774,-230
8637782,-187
8637790,-182
8637798,-151
8637805,-62
8637813,38
8637821,80
8637829,60
8637837,2
8637844,-12
8637852,63
8637860,107
8637868,-81
8637876,-500
8637883,-303
8637891,1274
8637899,3113
8637907,3071
8637915,731
8637923,-1836
8637930,-2542
8637938,-1603
8637946,-626
8637954,-392
8637962,-395
8637969,-257
8637977,-147
8637985,-94
8637993,-63
8638001,-50
8638008,-21
8638016,8
8638024,7
8638032,-23
8638040,-49
8638048,-51
8638055,-25
8638063,1
8638071,21
8638079,65
8638087,110
8638094,130
8638102,139
8638110,167
8638118,188
8638126,145
8638133,33
8638141,-113
8638149,-234
8638157,-313
8638165,-368
8638173,-387
8638180,-373
8638188,-338
8638196,-289
8638204,-214
8638212,-133
8638219,-91
8638227,-67
8638235,-20
8638243,33
8638251,23
8638258,-47
8638266,-102
8638274,-80
8638282,-22
8638290,-7
8638298,-41
8638305,-66
8638313,-71
8638321,-72
8638329,-54
8638337,-21
8638344,-10
8638352,-20
8638360,-25
8638368,-17
8638376,-14
8638383,-37
8638391,-91
8638399,-123
8638407,-84
8638415,-19
8638423,-52
8638430,-310
8638438,-337
8638446,766
8638454,2567
8638462,3148
8638469,1445
8638477,-1157
8638485,-2422
8638493,-1856
8638501,-816
8638508,-432
8638516,-469
8638524,-392
8638532,-279
8638540,-224
8638548,-164
8638555,-122
8638563,-106
8638571,-103
8638579,-89
8638587,-42
8638594,22
8638602,65
8638610,71
8638618,87
8638626,132
8638633,178
8638641,177
8638649,129
8638657,71
8638665,58
8638673,107
8638680,153
8638688,145
8638696,59
8638704,-90
8638712,-253
8638719,-367
8638727,-421
8638735,-417
8638743,-370
8638751,-309
8638758,-263
8638766,-232
8638774,-211
8638782,-195
8638790,-182
8638798,-169
8638805,-153
8638813,-132
8638821,-117
8638829,-121
8638837,-119
8638844,-101
8638852,-89
8638860,-98
8638868,-121
8638876,-138
8638883,-130
8638891,-93
8638899,-41
8638907,2
8638915,16
8638923,6
8638930,-16
8638938,-27
8638946,-22
8638954,-16
8638962,2
8638969,36
8638977,45
8638985,-97
8638993,-370
8639001,-54
8639008,1413
8639016,2922
8639024,2638
8639032,410
8639040,-1829
8639048,-2325
8639055,-1407
8639063,-552
8639071,-382
8639079,-383
8639087,-258
8639094,-177
8639102,-163
8639110,-184
8639118,-211
8639126,-189
8639133,-167
8639141,-170
8639149,-171
8639157,-130
8639165,-52
8639173,24
8639180,69
8639188,113
8639196,157
8639204,177
8639212,194
8639219,208
8639227,191
8639235,132
8639243,67
8639251,29
8639258,10
8639266,-48
8639274,-163
8639282,-267
8639290,-305
8639298,-289
8639305,-256
8639313,-245
8639321,-255
8639329,-257
8639337,-205
8639344,-100
8639352,21
8639360,103
8639368,112
8639376,75
8639383,31
8639391,22
8639399,43
8639407,49
8639415,30
8639423,36
8639430,99
8639438,181
8639446,193
8639454,128
8639462,40
8639469,-11
8639477,-37
8639485,-57
8639493,-62
8639501,-65
8639508,-98
8639516,-141
8639524,-156
8639532,-139
8639540,-112
8639548,-63
8639555,-35
8639563,-103
8639571,-345
8639579,-336
8639587,715
