Timestamp,Count
11295755,0
11295763,0
11295771,-1
11295778,-2
11295786,-3
11295794,-5
11295802,-8
11295810,-8
11295818,-12
11295825,-15
11295833,-12
11295841,-19
11295849,-15
11295857,-14
11295864,-45
11295872,-28
11295880,29
11295888,-17
11295896,-188
11295903,-321
11295911,-260
11295919,-93
11295927,-5
11295935,-51
11295943,-106
11295950,-85
11295958,-70
11295966,-93
11295974,-108
11295982,-108
11295989,-70
11295997,-8
11296005,25
11296013,14
11296021,-28
11296028,-66
11296036,-91
11296044,-106
11296052,-94
11296060,-84
11296068,-81
11296075,-58
11296083,-14
11296091,-41
11296099,-287
11296107,-413
11296114,436
11296122,2044
11296130,2742
11296138,1428
11296146,-852
11296153,-2101
11296161,-1729
11296169,-847
11296177,-499
11296185,-505
11296193,-376
11296200,-223
11296208,-155
11296216,-108
11296224,-63
11296232,-16
11296239,11
11296247,-5
11296255,-31
11296263,-32
11296271,-6
11296278,11
11296286,23
11296294,37
11296302,68
11296310,104
11296318,109
11296325,67
11296333,25
11296341,11
11296349,-8
11296357,-49
11296364,-99
11296372,-119
11296380,-109
11296388,-134
11296396,-216
11296403,-264
11296411,-218
11296419,-155
11296427,-140
11296435,-162
11296443,-148
11296450,-80
11296458,-24
11296466,-21
11296474,-30
11296482,-50
11296489,-64
11296497,-51
11296505,-15
11296513,-5
11296521,-34
11296528,-77
11296536,-98
11296544,-88
11296552,-76
11296560,-64
11296568,-64
11296575,-76
11296583,-87
11296591,-84
11296599,-73
11296607,-64
11296614,-56
11296622,-63
11296630,-91
11296638,-118
11296646,-100
11296653,-23
11296661,33
11296669,24
11296677,-24
11296685,-66
11296693,-64
11296700,-40
11296708,-29
11296716,-46
11296724,-84
11296732,-93
11296739,-52
11296747,-24
11296755,-118
11296763,-356
11296771,-149
11296778,1102
11296786,2552
11296794,2498
11296802,561
11296810,-1635
11296818,-2308
11296825,-1486
11296833,-549
11296841,-307
11296849,-358
11296857,-302
11296864,-222
11296872,-153
11296880,-109
11296888,-117
11296896,-85
11296903,-16
11296911,25
11296919,38
11296927,39
11296935,27
11296943,16
11296950,18
11296958,32
11296966,52
11296974,58
11296982,46
11296989,57
11296997,77
11297005,57
11297013,-14
11297021,-88
11297028,-127
11297036,-130
11297044,-148
11297052,-198
11297060,-230
11297068,-196
11297075,-145
11297083,-135
11297091,-160
11297099,-151
11297107,-89
11297114,-32
11297122,-30
11297130,-57
11297138,-75
11297146,-67
11297153,-52
11297161,-35
11297169,-26
11297177,-41
11297185,-72
11297193,-83
11297200,-67
11297208,-54
11297216,-85
11297224,-132
11297232,-127
11297239,-75
11297247,-32
11297255,-34
11297263,-45
11297271,-43
11297278,-52
11297286,-92
11297294,-135
11297302,-124
11297310,-44
11297318,38
11297325,59
11297333,3
11297341,-56
11297349,-65
11297357,-68
11297364,-75
11297372,-69
11297380,-58
11297388,-43
11297396,-28
11297403,-20
11297411,-113
11297419,-330
11297427,-13
11297435,1321
11297443,2616
11297450,2206
11297458,66
11297466,-1894
11297474,-2146
11297482,-1190
11297489,-453
11297497,-383
11297505,-391
11297513,-245
11297521,-166
11297528,-136
11297536,-77
11297544,-16
11297552,0
11297560,-37
11297568,-52
11297575,4
11297583,62
11297591,50
11297599,-16
11297607,-47
11297614,5
11297622,97
11297630,137
11297638,105
11297646,62
11297653,36
11297661,-12
11297669,-81
11297677,-130
11297685,-134
11297693,-132
11297700,-153
11297708,-184
11297716,-186
11297724,-187
11297732,-200
11297739,-207
11297747,-182
11297755,-126
11297763,-58
11297771,-27
11297778,-37
11297786,-57
11297794,-52
11297802,-44
11297810,-52
11297818,-61
11297825,-55
11297833,-46
11297841,-66
11297849,-89
11297857,-72
11297864,-50
11297872,-67
11297880,-112
11297888,-124
11297896,-82
11297903,-52
11297911,-65
11297919,-82
11297927,-68
11297935,-58
11297943,-77
11297950,-86
11297958,-58
11297966,0
11297974,33
11297982,18
11297989,-20
11297997,-62
11298005,-92
11298013,-88
11298021,-76
11298028,-78
11298036,-52
11298044,-10
11298052,-9
11298060,-182
11298068,-307
11298075,414
11298083,1932
11298091,2683
11298099,1467
11298107,-858
11298114,-2223
11298122,-1827
11298130,-780
11298138,-338
11298146,-436
11298153,-425
11298161,-258
11298169,-125
11298177,-52
11298185,-52
11298193,-47
11298200,-23
11298208,-14
11298216,11
11298224,51
11298232,80
11298239,69
11298247,11
11298255,-20
11298263,25
11298271,76
11298278,81
11298286,73
11298294,64
11298302,27
11298310,3
11298318,-11
11298325,-46
11298333,-110
11298341,-178
11298349,-229
11298357,-250
11298364,-248
11298372,-252
11298380,-230
11298388,-197
11298396,-151
11298403,-73
11298411,3
11298419,12
11298427,-33
11298435,-78
11298443,-90
11298450,-70
11298458,-32
11298466,-26
11298474,-42
11298482,-62
11298489,-74
11298497,-75
11298505,-78
11298513,-82
11298521,-83
11298528,-88
11298536,-93
11298544,-83
11298552,-79
11298560,-80
11298568,-81
11298575,-68
11298583,-46
11298591,-32
11298599,-30
11298607,-16
11298614,-1
11298622,-22
11298630,-78
11298638,-112
11298646,-106
11298653,-68
11298661,3
11298669,40
11298677,-44
11298685,-320
11298693,-235
11298700,924
11298708,2442
11298716,2530
11298724,656
11298732,-1569
11298739,-2288
11298747,-1514
11298755,-605
11298763,-363
11298771,-380
11298778,-265
11298786,-164
11298794,-109
11298802,-49
11298810,-20
11298818,-17
11298825,-25
11298833,-22
11298841,-12
11298849,-1
11298857,0
11298864,22
11298872,84
11298880,149
11298888,163
11298896,121
11298903,57
11298911,29
11298919,16
11298927,-18
11298935,-60
11298943,-86
11298950,-101
11298958,-144
11298966,-221
11298974,-271
11298982,-262
11298989,-222
11298997,-203
11299005,-191
11299013,-165
11299021,-127
11299028,-85
11299036,-56
11299044,-34
11299052,-10
11299060,0
11299068,-20
11299075,-47
11299083,-42
11299091,-45
11299099,-56
11299107,-72
11299114,-80
11299122,-51
11299130,-14
11299138,-24
11299146,-69
11299153,-118
11299161,-173
11299169,-189
11299177,-123
11299185,-13
11299193,56
11299200,48
11299208,-17
11299216,-70
11299224,-76
11299232,-58
11299239,-34
11299247,-19
11299255,-55
11299263,-95
11299271,-75
11299278,-27
11299286,-119
11299294,-327
11299302,75
11299310,1485
11299318,2700
11299325,2116
11299333,-108
11299341,-2011
11299349,-2170
11299357,-1173
11299364,-431
11299372,-357
11299380,-376
11299388,-242
11299396,-127
11299403,-71
11299411,-72
11299419,-83
11299427,-40
11299435,2
11299443,-5
11299450,-37
11299458,-41
11299466,-3
11299474,43
11299482,68
11299489,72
11299497,88
11299505,120
11299513,128
11299521,79
11299528,5
11299536,-51
11299544,-84
11299552,-113
11299560,-156
11299568,-184
11299575,-188
11299583,-191
11299591,-194
11299599,-193
11299607,-188
11299614,-181
11299622,-160
11299630,-128
11299638,-97
11299646,-73
11299653,-54
11299661,-32
11299669,2
11299677,5
11299685,-36
11299693,-82
11299700,-89
11299708,-61
11299716,-40
11299724,-47
11299732,-68
11299739,-95
11299747,-112
11299755,-104
11299763,-76
11299771,-61
11299778,-76
11299786,-86
11299794,-59
11299802,-30
11299810,-35
11299818,-40
11299825,-21
11299833,-7
11299841,-42
11299849,-98
11299857,-118
11299864,-83
11299872,-32
11299880,-25
11299888,-76
11299896,-270
11299903,-192
11299911,885
11299919,2421
11299927,2669
11299935,911
11299943,-1403
11299950,-2313
11299958,-1633
11299966,-709
11299974,-440
11299982,-445
11299989,-308
11299997,-189
11300005,-124
11300013,-40
11300021,-8
11300028,-37
11300036,-74
11300044,-72
11300052,-48
11300060,-21
11300068,21
11300075,75
11300083,91
11300091,68
11300099,49
11300107,70
11300114,91
11300122,66
11300130,32
11300138,10
11300146,-18
11300153,-66
11300161,-122
11300169,-176
11300177,-214
11300185,-217
11300193,-200
11300200,-185
11300208,-177
11300216,-184
11300224,-189
11300232,-158
11300239,-87
11300247,-34
11300255,-37
11300263,-51
11300271,-42
11300278,-34
11300286,-64
11300294,-97
11300302,-71
11300310,-13
11300318,-1
11300325,-39
11300333,-71
11300341,-95
11300349,-136
11300357,-146
11300364,-111
11300372,-55
11300380,-20
11300388,-33
11300396,-55
11300403,-48
11300411,-46
11300419,-57
11300427,-62
11300435,-59
11300443,-33
11300450,12
11300458,-9
11300466,-84
11300474,-124
11300482,-111
11300489,-123
11300497,-296
11300505,-231
11300513,859
11300521,2491
11300528,2859
11300536,1097
11300544,-1364
11300552,-2440
11300560,-1807
11300568,-792
11300575,-424
11300583,-423
11300591,-296
11300599,-164
11300607,-137
11300614,-144
11300622,-136
11300630,-82
11300638,-14
11300646,33
11300653,43
11300661,23
11300669,-5
11300677,-18
11300685,30
11300693,101
11300700,120
11300708,77
11300716,54
11300724,61
11300732,48
11300739,2
11300747,-48
11300755,-81
11300763,-119
11300771,-162
11300778,-181
11300786,-178
11300794,-177
11300802,-189
11300810,-197
11300818,-184
11300825,-156
11300833,-122
11300841,-87
11300849,-59
11300857,-58
11300864,-72
11300872,-60
11300880,-20
11300888,19
11300896,6
11300903,-55
11300911,-92
11300919,-78
11300927,-73
11300935,-79
11300943,-74
11300950,-66
11300958,-74
11300966,-64
11300974,-29
11300982,-36
11300989,-101
11300997,-158
11301005,-110
11301013,9
11301021,64
11301028,3
11301036,-64
11301044,-69
11301052,-66
11301060,-74
11301068,-81
11301075,-78
11301083,-48
11301091,-20
11301099,-43
11301107,-175
11301114,-374
11301122,17
11301130,1452
11301138,2808
11301146,2359
11301153,110
11301161,-1979
11301169,-2300
11301177,-1312
11301185,-494
11301193,-387
11301200,-409
11301208,-276
11301216,-177
11301224,-128
11301232,-101
11301239,-92
11301247,-55
11301255,-17
11301263,2
11301271,12
11301278,42
11301286,62
11301294,48
11301302,18
11301310,2
11301318,28
11301325,66
11301333,62
11301341,40
11301349,32
11301357,23
11301364,-21
11301372,-73
11301380,-110
11301388,-133
11301396,-167
11301403,-213
11301411,-244
11301419,-234
11301427,-208
11301435,-178
11301443,-146
11301450,-102
11301458,-70
11301466,-48
11301474,-18
11301482,-3
11301489,-32
11301497,-70
11301505,-87
11301513,-89
11301521,-70
11301528,-48
11301536,-45
11301544,-47
11301552,-50
11301560,-61
11301568,-69
11301575,-84
11301583,-108
11301591,-128
11301599,-121
11301607,-105
11301614,-84
11301622,-36
11301630,32
11301638,73
11301646,45
11301653,-33
11301661,-96
11301669,-107
11301677,-80
11301685,-79
11301693,-82
11301700,-54
11301708,-36
11301716,-132
11301724,-368
11301732,-102
11301739,1255
11301747,2717
11301755,2503
11301763,384
11301771,-1781
11301778,-2268
11301786,-1384
11301794,-571
11301802,-425
11301810,-422
11301818,-286
11301825,-197
11301833,-152
11301841,-90
11301849,-32
11301857,5
11301864,10
11301872,1
11301880,6
11301888,9
11301896,10
11301903,9
11301911,19
11301919,54
11301927,72
11301935,53
11301943,29
11301950,41
11301958,55
11301966,24
11301974,-48
11301982,-103
11301989,-116
11301997,-121
11302005,-158
11302013,-197
11302021,-196
11302028,-178
11302036,-174
11302044,-194
11302052,-206
11302060,-165
11302068,-83
11302075,-18
11302083,1
11302091,-10
11302099,-24
11302107,-42
11302114,-45
11302122,-38
11302130,-53
11302138,-100
11302146,-152
11302153,-157
11302161,-108
11302169,-58
11302177,-37
11302185,-24
11302193,-14
11302200,-43
11302208,-97
11302216,-122
11302224,-80
11302232,-7
11302239,19
11302247,-15
11302255,-78
11302263,-120
11302271,-99
11302278,-28
11302286,14
11302294,-21
11302302,-71
11302310,-63
11302318,-44
11302325,-173
11302333,-403
11302341,53
11302349,1579
11302357,2830
11302364,2139
11302372,-205
11302380,-2102
11302388,-2173
11302396,-1145
11302403,-457
11302411,-402
11302419,-368
11302427,-218
11302435,-158
11302443,-120
11302450,-59
11302458,-26
11302466,-32
11302474,-42
11302482,-18
11302489,25
11302497,47
11302505,38
11302513,23
11302521,30
11302528,61
11302536,101
11302544,106
11302552,60
11302560,6
11302568,-3
11302575,7
11302583,-18
11302591,-92
11302599,-174
11302607,-203
11302614,-191
11302622,-189
11302630,-205
11302638,-203
11302646,-180
11302653,-157
11302661,-152
11302669,-131
11302677,-81
11302685,-43
11302693,-43
11302700,-54
11302708,-35
11302716,-6
11302724,-7
11302732,-34
11302739,-58
11302747,-63
11302755,-72
11302763,-96
11302771,-98
11302778,-75
11302786,-56
11302794,-71
11302802,-101
11302810,-103
11302818,-59
11302825,-9
11302833,-7
11302841,-48
11302849,-90
11302857,-100
11302864,-65
11302872,-26
11302880,-34
11302888,-64
11302896,-55
11302903,-24
11302911,-73
11302919,-286
11302927,-171
11302935,944
11302943,2397
11302950,2492
11302958,672
11302966,-1525
11302974,-2267
11302982,-1510
11302989,-599
11302997,-338
11303005,-348
11303013,-243
11303021,-156
11303028,-123
11303036,-81
11303044,-48
11303052,-39
11303060,-24
11303068,2
11303075,17
11303083,11
11303091,6
11303099,20
11303107,56
11303114,94
11303122,102
11303130,81
11303138,55
11303146,44
11303153,23
11303161,-14
11303169,-53
11303177,-83
11303185,-117
11303193,-176
11303200,-237
11303208,-247
11303216,-224
11303224,-212
11303232,-192
11303239,-131
11303247,-74
11303255,-76
11303263,-119
11303271,-122
11303278,-71
11303286,-17
11303294,-12
11303302,-27
11303310,-30
11303318,-29
11303325,-31
11303333,-25
11303341,-17
11303349,-28
11303357,-68
11303364,-113
11303372,-147
11303380,-148
11303388,-119
11303396,-75
11303403,-16
11303411,18
11303419,-1
11303427,-50
11303435,-82
11303443,-86
11303450,-88
11303458,-98
11303466,-102
11303474,-55
11303482,8
11303489,7
11303497,-143
11303505,-338
11303513,119
11303521,1544
11303528,2690
11303536,2020
11303544,-197
11303552,-2008
11303560,-2102
11303568,-1129
11303575,-437
11303583,-361
11303591,-342
11303599,-231
11303607,-177
11303614,-135
11303622,-89
11303630,-70
11303638,-50
11303646,-23
11303653,3
11303661,9
11303669,7
11303677,20
11303685,47
11303693,62
11303700,56
11303708,41
11303716,34
11303724,39
11303732,26
11303739,-8
11303747,-27
11303755,-25
11303763,-32
11303771,-91
11303778,-155
11303786,-193
11303794,-217
11303802,-247
11303810,-258
11303818,-230
11303825,-171
11303833,-122
11303841,-89
11303849,-75
11303857,-54
11303864,-16
11303872,19
11303880,16
11303888,-32
11303896,-76
11303903,-83
11303911,-66
11303919,-60
11303927,-64
11303935,-62
11303943,-75
11303950,-112
11303958,-142
11303966,-131
11303974,-71
11303982,-8
11303989,17
11303997,-4
11304005,-27
11304013,-52
11304021,-82
11304028,-84
11304036,-65
11304044,-76
11304052,-100
11304060,-85
11304068,-35
11304075,-56
11304083,-268
11304091,-207
11304099,901
11304107,2466
11304114,2696
11304122,890
11304130,-1457
11304138,-2373
11304146,-1665
11304153,-687
11304161,-383
11304169,-412
11304177,-312
11304185,-194
11304193,-117
11304200,-48
11304208,-30
11304216,-60
11304224,-81
11304232,-73
11304239,-30
11304247,17
11304254,43
11304262,55
11304270,72
11304277,90
11304285,101
11304293,85
11304301,45
11304309,7
11304317,-4
11304324,-5
11304332,-20
11304340,-68
11304348,-128
11304356,-160
11304363,-174
11304371,-199
11304380,-234
11304388,-237
11304396,-197
11304403,-151
11304411,-137
11304419,-145
11304427,-129
11304435,-90
11304443,-56
11304450,-44
11304458,-35
11304466,-18
11304474,-4
11304482,-21
11304489,-49
11304497,-57
11304505,-67
11304513,-96
11304521,-131
11304528,-137
11304536,-105
11304544,-68
11304552,-51
11304560,-41
11304568,-19
11304575,6
11304583,10
11304591,-22
11304599,-81
11304607,-123
11304614,-109
11304622,-74
11304630,-56
11304638,-32
11304646,-8
11304653,-31
11304661,-234
11304669,-387
11304677,374
11304685,2037
11304693,2938
11304700,1705
11304708,-791
11304716,-2332
11304724,-2007
11304732,-925
11304739,-406
11304747,-430
11304755,-381
11304763,-229
11304771,-135
11304778,-70
11304786,-67
11304794,-93
11304802,-81
11304810,-26
11304818,19
11304825,20
11304833,14
11304841,31
11304849,54
11304857,59
11304864,63
11304872,78
11304880,86
11304888,68
11304896,23
11304903,-6
11304911,-1
11304919,-6
11304927,-57
11304935,-154
11304943,-237
11304950,-264
11304958,-248
11304966,-224
11304974,-202
11304982,-162
11304989,-122
11304997,-97
11305005,-85
11305013,-74
11305021,-50
11305028,-28
11305036,-28
11305044,-44
11305052,-60
11305060,-63
11305068,-56
11305075,-55
11305083,-63
11305091,-65
11305099,-55
11305107,-46
11305114,-38
11305122,-43
11305130,-62
11305138,-103
11305146,-136
11305153,-125
11305161,-62
11305169,9
11305177,32
11305185,2
11305193,-39
11305200,-71
11305208,-79
11305216,-58
11305224,-20
11305232,-27
11305239,-57
11305247,-53
11305255,-34
11305263,-128
11305271,-366
11305278,-69
11305286,1321
11305294,2726
11305302,2389
11305310,221
11305318,-1852
11305325,-2221
11305333,-1306
11305341,-529
11305349,-415
11305357,-412
11305364,-279
11305372,-203
11305380,-157
11305388,-95
11305396,-60
11305403,-33
11305411,-1
11305419,31
11305427,41
11305435,19
11305443,4
11305450,26
11305458,69
11305466,82
11305474,61
11305482,30
11305489,23
11305497,37
11305505,38
11305513,18
11305521,-16
11305528,-54
11305536,-102
11305544,-158
11305552,-199
11305560,-217
11305568,-212
11305575,-212
11305583,-223
11305591,-206
11305599,-144
11305607,-73
11305614,-33
11305622,-39
11305630,-57
11305638,-56
11305646,-37
11305653,-24
11305661,-39
11305669,-79
11305677,-104
11305685,-91
11305693,-60
11305700,-51
11305708,-59
11305716,-70
11305724,-67
11305732,-54
11305739,-38
11305747,-41
11305755,-70
11305763,-128
11305771,-161
11305778,-138
11305786,-62
11305794,5
11305802,31
11305810,14
11305818,-17
11305825,-41
11305833,-48
11305841,-55
11305849,-59
11305857,-78
11305864,-89
11305872,-61
11305880,-19
11305888,-53
11305896,-272
11305903,-316
11305911,628
11305919,2241
11305927,2793
11305935,1267
11305943,-1127
11305950,-2311
11305958,-1771
11305966,-757
11305974,-385
11305982,-436
11305989,-357
11305997,-220
11306005,-143
11306013,-82
11306021,-60
11306028,-52
11306036,-29
11306044,-9
11306052,13
11306060,27
11306068,22
11306075,15
11306083,31
11306091,48
11306099,44
11306107,27
11306114,28
11306122,52
11306130,52
11306138,17
11306146,-15
11306153,-34
11306161,-67
11306169,-126
11306177,-185
11306185,-220
11306193,-234
11306200,-232
11306208,-210
11306216,-167
11306224,-116
11306232,-88
11306239,-79
11306247,-66
11306255,-40
11306263,-26
11306271,-47
11306278,-80
11306286,-85
11306294,-68
11306302,-60
11306310,-67
11306318,-72
11306325,-65
11306333,-66
11306341,-80
11306349,-82
11306357,-72
11306364,-71
11306372,-83
11306380,-88
11306388,-81
11306396,-65
11306403,-67
11306411,-97
11306419,-120
11306427,-105
11306435,-40
11306443,32
11306450,63
11306458,31
11306466,-38
11306474,-90
11306482,-103
11306489,-82
11306497,-66
11306505,-68
11306513,-52
11306521,-22
11306528,-31
11306536,-184
11306544,-358
11306552,227
11306560,1753
11306568,2781
11306575,1851
11306583,-477
11306591,-2137
11306599,-2015
11306607,-997
11306614,-428
11306622,-425
11306630,-371
11306638,-210
11306646,-142
11306653,-109
11306661,-90
11306669,-75
11306677,-43
11306685,-12
11306693,-6
11306700,-6
11306708,5
11306716,27
11306724,42
11306732,38
11306739,38
11306747,65
11306755,81
11306763,49
11306771,2
11306778,-21
11306786,-24
11306794,-43
11306802,-81
11306810,-120
11306818,-148
11306825,-170
11306833,-194
11306841,-214
11306849,-204
11306857,-172
11306864,-136
11306872,-112
11306880,-101
11306888,-72
11306896,-38
11306903,-24
11306911,-31
11306919,-44
11306927,-51
11306935,-59
11306943,-72
11306950,-78
11306958,-80
11306966,-90
11306974,-96
11306982,-85
11306989,-63
11306997,-70
11307005,-85
11307013,-85
11307021,-67
11307028,-70
11307036,-90
11307044,-113
11307052,-114
11307060,-98
11307068,-65
11307075,-21
11307083,22
11307091,38
11307099,20
11307107,-27
11307114,-70
11307122,-89
11307130,-70
11307138,-63
11307146,-93
11307153,-90
11307161,-41
11307169,-10
11307177,-184
11307185,-332
11307193,423
11307200,2023
11307208,2823
11307216,1550
11307224,-870
11307232,-2295
11307239,-1920
11307247,-864
11307255,-383
11307263,-420
11307271,-368
11307278,-224
11307286,-138
11307294,-96
11307302,-82
11307310,-54
11307318,3
11307325,18
11307333,-16
11307341,-48
11307349,-34
11307357,3
11307364,19
11307372,20
11307380,43
11307388,72
11307396,79
11307403,55
11307411,16
11307419,-20
11307427,-41
11307435,-58
11307443,-84
11307450,-125
11307458,-168
11307466,-196
11307474,-205
11307482,-201
11307489,-192
11307497,-173
11307505,-140
11307513,-108
11307521,-75
11307528,-46
11307536,-39
11307544,-58
11307552,-76
11307560,-71
11307568,-47
11307575,-33
11307583,-48
11307591,-76
11307599,-83
11307607,-77
11307614,-66
11307622,-54
11307630,-55
11307638,-74
11307646,-95
11307653,-97
11307661,-92
11307669,-103
11307677,-115
11307685,-87
11307693,-17
11307700,38
11307708,37
11307716,-9
11307724,-52
11307732,-76
11307739,-85
11307747,-75
11307755,-69
11307763,-68
11307771,-44
11307778,-8
11307786,-26
11307794,-239
11307802,-338
11307810,492
11307818,2060
11307825,2713
11307833,1345
11307841,-998
11307849,-2246
11307857,-1782
11307864,-776
11307872,-361
11307880,-386
11307888,-303
11307896,-179
11307903,-135
11307911,-96
11307919,-56
11307927,-28
11307935,-12
11307943,-3
11307950,11
11307958,28
11307966,41
11307974,40
11307982,38
11307989,40
11307997,41
11308005,41
11308013,39
11308021,16
11308028,-23
11308036,-35
11308044,-16
11308052,-8
11308060,-45
11308068,-119
11308075,-187
11308083,-220
11308091,-223
11308099,-220
11308107,-202
11308114,-175
11308122,-146
11308130,-115
11308138,-75
11308146,-45
11308153,-32
11308161,-33
11308169,-34
11308177,-31
11308185,-39
11308193,-59
11308200,-67
11308208,-63
11308216,-72
11308224,-92
11308232,-101
11308239,-88
11308247,-69
11308255,-60
11308263,-74
11308271,-99
11308278,-124
11308286,-126
11308294,-91
11308302,-30
11308310,10
11308318,20
11308325,14
11308333,3
11308341,-35
11308349,-87
11308357,-110
11308364,-102
11308372,-72
11308380,-43
11308388,-34
11308396,-98
11308403,-307
11308411,-168
11308419,1013
11308427,2514
11308435,2558
11308443,623
11308450,-1637
11308458,-2335
11308466,-1518
11308474,-620
11308482,-404
11308489,-385
11308497,-201
11308505,-97
11308513,-109
11308521,-87
11308528,-38
11308536,-16
11308544,-51
11308552,-83
11308560,-58
11308568,5
11308575,39
11308583,40
11308591,42
11308599,66
11308607,82
11308614,71
11308622,49
11308630,35
11308638,29
11308646,-5
11308653,-59
11308661,-106
11308669,-124
11308677,-134
11308685,-159
11308693,-190
11308700,-196
11308708,-182
11308716,-171
11308724,-161
11308732,-131
11308739,-83
11308747,-56
11308755,-62
11308763,-80
11308771,-76
11308778,-65
11308786,-61
11308794,-53
11308802,-26
11308810,-6
11308818,-21
11308825,-55
11308833,-76
11308841,-86
11308849,-101
11308857,-111
11308864,-103
11308872,-103
11308880,-121
11308888,-123
11308896,-73
11308903,11
11308911,74
11308919,68
11308927,2
11308935,-84
11308943,-142
11308950,-139
11308958,-113
11308966,-71
11308974,-11
11308982,28
11308989,-8
11308997,-223
11309005,-300
11309013,578
11309021,2175
11309028,2789
11309036,1321
11309044,-1097
11309052,-2358
11309060,-1855
11309068,-812
11309075,-385
11309083,-392
11309091,-297
11309099,-179
11309107,-152
11309114,-113
11309122,-70
11309130,-30
11309138,-11
11309146,-18
11309153,-26
11309161,-24
11309169,5
11309177,55
11309185,88
11309193,82
11309200,38
11309208,0
11309216,7
11309224,36
11309232,46
11309239,10
11309247,-39
11309255,-79
11309263,-104
11309271,-138
11309278,-177
11309286,-205
11309294,-207
11309302,-188
11309310,-165
11309318,-155
11309325,-131
11309333,-92
11309341,-65
11309349,-62
11309357,-64
11309364,-44
11309372,-14
11309380,0
11309388,-23
11309396,-67
11309403,-85
11309411,-83
11309419,-74
11309427,-64
11309435,-66
11309443,-77
11309450,-86
11309458,-96
11309466,-107
11309474,-97
11309482,-56
11309489,-8
11309497,11
11309505,-10
11309513,-42
11309521,-51
11309528,-63
11309536,-89
11309544,-92
11309552,-74
11309560,-38
11309568,-8
11309575,-2
11309583,-106
11309591,-346
11309599,-83
11309607,1265
11309614,2700
11309622,2440
11309630,273
11309638,-1902
11309646,-2335
11309653,-1362
11309661,-482
11309669,-330
11309677,-373
11309685,-293
11309693,-224
11309700,-144
11309708,-50
11309716,-33
11309724,-77
11309732,-99
11309739,-41
11309747,51
11309755,89
11309763,79
11309771,66
11309778,54
11309786,39
11309794,26
11309802,30
11309810,24
11309818,-11
11309825,-42
11309833,-24
11309841,31
11309849,36
11309857,-58
11309864,-184
11309872,-242
11309880,-223
11309888,-190
11309896,-188
11309903,-190
11309911,-174
11309919,-133
11309927,-73
11309935,-21
11309943,5
11309950,7
11309958,-17
11309966,-77
11309974,-129
11309982,-128
11309989,-68
11309997,-2
11310005,1
11310013,-35
11310021,-57
11310028,-72
11310036,-108
11310044,-135
11310052,-102
11310060,-34
11310068,21
11310075,26
11310083,-15
11310091,-51
11310099,-69
11310107,-92
11310114,-109
11310122,-110
11310130,-97
11310138,-60
11310146,-7
11310153,4
11310161,-148
11310169,-370
11310177,133
11310185,1651
11310193,2802
11310200,2000
11310208,-333
11310216,-2105
11310224,-2068
11310232,-1048
11310239,-431
11310247,-420
11310255,-386
11310263,-254
11310271,-208
11310278,-159
11310286,-66
11310294,9
11310302,29
11310310,7
11310318,-6
11310325,-1
11310333,1
11310341,0
11310349,11
11310357,17
11310364,13
11310372,38
11310380,99
11310388,126
11310396,62
11310403,-42
11310411,-100
11310419,-94
11310427,-90
11310435,-139
11310443,-200
11310450,-221
11310458,-186
11310466,-144
11310474,-123
11310482,-112
11310489,-101
11310497,-111
11310505,-138
11310513,-116
11310521,-53
11310528,0
11310536,5
11310544,-9
11310552,-27
11310560,-54
11310568,-91
11310575,-108
11310583,-96
11310591,-71
11310599,-62
11310607,-78
11310614,-121
11310622,-130
11310630,-73
11310638,7
11310646,41
11310653,11
11310661,-41
11310669,-69
11310677,-82
11310685,-86
11310693,-78
11310700,-83
11310708,-85
11310716,-58
11310724,-23
11310732,-126
11310739,-393
11310747,-97
11310755,1327
11310763,2775
11310771,2437
11310778,212
11310786,-1927
11310794,-2296
11310802,-1307
11310810,-470
11310818,-358
11310825,-409
11310833,-302
11310841,-185
11310849,-84
11310857,-30
11310864,-34
11310872,-28
11310880,-21
11310888,-17
11310896,-11
11310903,-5
11310911,3
11310919,14
11310927,48
11310935,85
11310943,99
11310950,59
11310958,0
11310966,-17
11310974,-15
11310982,-27
11310989,-62
11310997,-99
11311005,-126
11311013,-152
11311021,-156
11311028,-142
11311036,-146
11311044,-197
11311052,-244
11311060,-221
11311068,-143
11311075,-76
11311083,-52
11311091,-39
11311099,-19
11311107,-21
11311114,-49
11311122,-68
11311130,-68
11311138,-60
11311146,-63
11311153,-78
11311161,-95
11311169,-100
11311177,-103
11311185,-104
11311193,-71
11311200,-12
11311208,30
11311216,28
11311224,-6
11311232,-45
11311239,-80
11311247,-121
11311255,-144
11311263,-129
11311271,-75
11311278,8
11311286,65
11311294,27
11311302,-204
11311310,-444
11311318,147
11311325,1735
11311333,2820
11311341,1903
11311349,-464
11311357,-2161
11311364,-2031
11311372,-968
11311380,-352
11311388,-358
11311396,-361
11311403,-268
11311411,-218
11311419,-140
11311427,-56
11311435,-21
11311443,-15
11311450,-21
11311458,-16
11311466,-2
11311474,3
11311482,8
11311489,28
11311497,37
11311505,41
11311513,47
11311521,46
11311528,14
11311536,-35
11311544,-60
11311552,-43
11311560,-25
11311568,-56
11311575,-124
11311583,-176
11311591,-178
11311599,-153
11311607,-145
11311614,-156
11311622,-141
11311630,-90
11311638,-57
11311646,-68
11311653,-80
11311661,-89
11311669,-100
11311677,-100
11311685,-60
11311693,5
11311700,33
11311708,0
11311716,-61
11311724,-92
11311732,-95
11311739,-98
11311747,-114
11311755,-118
11311763,-82
11311771,-14
11311778,22
11311786,2
11311794,-45
11311802,-79
11311810,-89
11311818,-81
11311825,-78
11311833,-82
11311841,-63
11311849,-22
11311857,-18
11311864,-200
11311872,-446
11311880,89
11311888,1668
11311896,2840
11311903,2022
11311911,-323
11311919,-2068
11311927,-2029
11311935,-1040
11311943,-464
11311950,-453
11311958,-395
11311966,-221
11311974,-144
11311982,-90
11311989,-49
11311997,-57
11312005,-70
11312013,-39
11312021,16
11312028,38
11312036,11
11312044,-13
11312052,8
11312060,49
11312068,50
11312075,27
11312083,18
11312091,12
11312099,-14
11312107,-46
11312114,-53
11312122,-61
11312130,-94
11312138,-129
11312146,-145
11312153,-140
11312161,-135
11312169,-148
11312177,-156
11312185,-128
11312193,-83
11312200,-70
11312208,-78
11312216,-78
11312224,-69
11312232,-61
11312239,-51
11312247,-46
11312255,-29
11312263,-28
11312271,-48
11312278,-63
11312286,-67
11312294,-87
11312302,-113
11312310,-124
11312318,-94
11312325,-42
11312333,4
11312341,12
11312349,-13
11312357,-48
11312364,-81
11312372,-101
11312380,-100
11312388,-91
11312396,-87
11312403,-75
11312411,-47
11312419,-29
11312427,-175
11312435,-381
11312443,172
11312450,1730
11312458,2834
11312466,1934
11312474,-453
11312482,-2172
11312489,-2049
11312497,-1003
11312505,-426
11312513,-434
11312521,-382
11312528,-212
11312536,-130
11312544,-93
11312552,-68
11312560,-54
11312568,-36
11312575,-30
11312583,-16
11312591,3
11312599,6
11312607,-1
11312614,10
11312622,39
11312630,63
11312638,59
11312646,34
11312653,5
11312661,-21
11312669,-59
11312677,-77
11312685,-69
11312693,-69
11312700,-105
11312708,-153
11312716,-179
11312724,-172
11312732,-157
11312739,-137
11312747,-110
11312755,-83
11312763,-76
11312771,-87
11312778,-93
11312786,-74
11312794,-42
11312802,-13
11312810,-19
11312818,-38
11312825,-57
11312833,-60
11312841,-68
11312849,-79
11312857,-95
11312864,-98
11312872,-91
11312880,-74
11312888,-38
11312896,-5
11312903,5
11312911,-5
11312919,-34
11312927,-71
11312935,-104
11312943,-115
11312950,-112
11312958,-85
11312966,-20
11312974,3
11312982,-107
11312989,-398
11312997,-258
11313005,1015
11313013,2580
11313021,2594
11313028,611
11313036,-1639
11313044,-2295
11313052,-1460
11313060,-567
11313068,-378
11313075,-409
11313083,-276
11313091,-171
11313099,-137
11313107,-100
11313114,-72
11313122,-36
11313130,-5
11313138,-2
11313146,-15
11313153,-14
11313161,5
11313169,28
11313177,37
11313185,48
11313193,61
11313200,65
11313208,36
11313216,-11
11313224,-47
11313232,-61
11313239,-78
11313247,-98
11313255,-101
11313263,-91
11313271,-94
11313278,-121
11313286,-150
11313294,-173
11313302,-181
11313310,-162
11313318,-111
11313325,-62
11313333,-44
11313341,-47
11313349,-33
11313357,-13
11313364,-13
11313372,-35
11313380,-54
11313388,-57
11313396,-57
11313403,-68
11313411,-92
11313419,-125
11313427,-144
11313435,-103
11313443,-24
11313450,38
11313458,34
11313466,-10
11313474,-58
11313482,-86
11313489,-89
11313497,-73
11313505,-82
11313513,-89
11313521,-55
11313528,-5
11313536,-84
11313544,-385
11313552,-283
11313560,969
11313568,2539
11313575,2569
11313583,603
11313591,-1622
11313599,-2249
11313607,-1396
11313614,-521
11313622,-360
11313630,-410
11313638,-292
11313646,-183
11313653,-108
11313661,-31
11313669,2
11313677,-7
11313685,-42
11313693,-60
11313700,-37
11313708,-7
11313716,8
11313724,14
11313732,32
11313739,56
11313747,69
11313755,54
11313763,20
11313771,-11
11313778,-24
11313786,-46
11313794,-71
11313802,-95
11313810,-101
11313818,-109
11313825,-130
11313833,-161
11313841,-167
11313849,-157
11313857,-134
11313864,-104
11313872,-83
11313880,-76
11313888,-71
11313896,-63
11313903,-49
11313911,-40
11313919,-45
11313927,-52
11313935,-55
11313943,-66
11313950,-76
11313958,-81
11313966,-89
11313974,-98
11313982,-91
11313989,-54
11313997,2
11314005,31
11314013,9
11314021,-35
11314028,-70
11314036,-97
11314044,-109
11314052,-100
11314060,-91
11314068,-69
11314075,-25
11314083,-17
11314091,-150
11314099,-439
11314107,-237
11314114,1098
11314122,2625
11314130,2514
11314138,454
11314146,-1723
11314153,-2251
11314161,-1362
11314169,-509
11314177,-356
11314185,-389
11314193,-271
11314200,-188
11314208,-151
11314216,-95
11314224,-48
11314232,-14
11314239,-5
11314247,-8
11314255,-15
11314263,-13
11314271,0
11314278,25
11314286,43
11314294,47
11314302,21
11314310,-8
11314318,-15
11314325,-4
11314333,-9
11314341,-31
11314349,-60
11314357,-82
11314364,-108
11314372,-136
11314380,-144
11314388,-128
11314396,-134
11314403,-176
11314411,-212
11314419,-185
11314427,-103
11314435,-30
11314443,-13
11314450,-30
11314458,-26
11314466,-13
11314474,-26
11314482,-58
11314489,-66
11314497,-48
11314505,-50
11314513,-91
11314521,-135
11314528,-139
11314536,-117
11314544,-72
11314552,-5
11314560,45
11314568,29
11314575,-34
11314583,-79
11314591,-89
11314599,-80
11314607,-98
11314614,-116
11314622,-79
11314630,-27
11314638,-58
11314646,-311
11314653,-471
11314661,354
11314669,2039
11314677,2874
11314685,1605
11314693,-804
11314700,-2209
11314708,-1848
11314716,-847
11314724,-401
11314732,-431
11314739,-361
11314747,-198
11314755,-92
11314763,-26
11314771,-34
11314778,-65
11314786,-61
11314794,-22
11314802,17
11314810,15
11314818,-16
11314825,-25
11314833,7
11314841,62
11314849,81
11314857,42
11314864,-31
11314872,-61
11314880,-40
11314888,-26
11314896,-56
11314903,-99
11314911,-116
11314919,-108
11314927,-101
11314935,-110
11314943,-126
11314950,-148
11314958,-170
11314966,-170
11314974,-133
11314982,-97
11314989,-74
11314997,-46
11315005,-12
11315013,-11
11315021,-46
11315028,-50
11315036,-26
11315044,-36
11315052,-80
11315060,-98
11315068,-78
11315075,-75
11315083,-99
11315091,-83
11315099,1
11315107,55
11315114,5
11315122,-78
11315130,-106
11315138,-99
11315146,-99
11315153,-112
11315161,-110
11315169,-68
11315177,-26
11315185,-41
11315193,-245
11315200,-466
11315208,155
11315216,1762
11315224,2826
11315232,1864
11315239,-511
11315247,-2159
11315255,-1989
11315263,-948
11315271,-388
11315278,-399
11315286,-362
11315294,-221
11315302,-150
11315310,-101
11315318,-75
11315325,-56
11315333,-42
11315341,-46
11315349,-25
11315357,8
11315364,18
11315372,9
11315380,17
11315388,42
11315396,45
11315403,19
11315411,-12
11315419,-24
11315427,-28
11315435,-51
11315443,-69
11315450,-71
11315458,-82
11315466,-107
11315474,-142
11315482,-187
11315489,-214
11315497,-194
11315505,-134
11315513,-86
11315521,-85
11315528,-113
11315536,-105
11315544,-60
11315552,-35
11315560,-39
11315568,-42
11315575,-53
11315583,-71
11315591,-55
11315599,-18
11315607,-29
11315614,-113
11315622,-164
11315630,-101
11315638,3
11315646,8
11315653,-51
11315661,-66
11315669,-39
11315677,-70
11315685,-128
11315693,-121
11315700,-72
11315708,-55
11315716,-55
11315724,-27
11315732,-68
11315739,-348
11315747,-339
11315755,788
11315763,2383
11315771,2581
11315778,733
11315786,-1531
11315794,-2255
11315802,-1438
11315810,-513
11315818,-318
11315825,-389
11315833,-278
11315841,-159
11315849,-127
11315857,-97
11315864,-46
11315872,1
11315880,-7
11315888,-45
11315896,-42
11315903,12
11315911,44
11315919,16
11315927,22
11315935,83
11315943,84
11315950,8
11315958,-48
11315966,-19
11315974,30
11315982,24
11315989,-55
11315997,-125
11316005,-154
11316013,-168
11316021,-153
11316028,-120
11316036,-120
11316044,-163
11316052,-194
11316060,-183
11316068,-134
11316075,-82
11316083,-52
11316091,-44
11316099,-37
11316107,-26
11316114,-23
11316122,-31
11316130,-48
11316138,-58
11316146,-63
11316153,-73
11316161,-89
11316169,-90
11316177,-64
11316185,-12
11316193,23
11316200,-7
11316208,-89
11316216,-138
11316224,-110
11316232,-39
11316239,-21
11316247,-70
11316255,-83
11316263,-38
11316271,-36
11316278,-261
11316286,-462
11316294,217
11316302,1800
11316310,2715
11316318,1637
11316325,-661
11316333,-2107
11316341,-1822
11316349,-829
11316357,-357
11316364,-387
11316372,-327
11316380,-176
11316388,-104
11316396,-71
11316403,-66
11316411,-68
11316419,-53
11316427,-34
11316435,-18
11316443,-7
11316450,4
11316458,20
11316466,32
11316474,23
11316482,1
11316489,5
11316497,36
11316505,54
11316513,23
11316521,-27
11316528,-67
11316536,-80
11316544,-94
11316552,-122
11316560,-149
11316568,-156
11316575,-154
11316583,-146
11316591,-142
11316599,-133
11316607,-113
11316614,-82
11316622,-56
11316630,-43
11316638,-39
11316646,-41
11316653,-42
11316661,-33
11316669,-28
11316677,-32
11316685,-46
11316693,-68
11316700,-95
11316708,-107
11316716,-84
11316724,-35
11316732,-1
11316739,1
11316747,-26
11316755,-64
11316763,-94
11316771,-107
11316778,-96
11316786,-92
11316794,-85
11316802,-50
11316810,-20
11316818,-96
11316825,-367
11316833,-323
11316841,817
11316849,2445
11316857,2728
11316864,958
11316872,-1357
11316880,-2251
11316888,-1565
11316896,-661
11316903,-416
11316911,-443
11316919,-314
11316927,-190
11316935,-142
11316943,-100
11316950,-71
11316958,-54
11316966,-47
11316974,-33
11316982,-5
11316989,22
11316997,32
11317005,28
11317013,27
11317021,29
11317028,38
11317036,36
11317044,22
11317052,-5
11317060,-33
11317068,-59
11317075,-73
11317083,-84
11317091,-106
11317099,-132
11317107,-147
11317114,-151
11317122,-144
11317130,-141
11317138,-143
11317146,-131
11317153,-100
11317161,-70
11317169,-53
11317177,-48
11317185,-49
11317193,-50
11317200,-51
11317208,-57
11317216,-60
11317224,-64
11317232,-78
11317239,-94
11317247,-95
11317255,-67
11317263,-24
11317271,6
11317278,5
11317286,-22
11317294,-64
11317302,-101
11317310,-120
11317318,-114
11317325,-106
11317333,-95
11317341,-54
11317349,-17
11317357,-83
11317364,-363
11317372,-438
11317380,540
11317388,2220
11317396,2821
11317403,1320
11317411,-1049
11317419,-2219
11317427,-1707
11317435,-759
11317443,-415
11317450,-445
11317458,-339
11317466,-206
11317474,-148
11317482,-96
11317489,-68
11317497,-50
11317505,-31
11317513,-21
11317521,-7
11317528,1
11317536,7
11317544,14
11317552,27
11317560,34
11317568,36
11317575,32
11317583,17
11317591,-3
11317599,-26
11317607,-50
11317614,-77
11317622,-94
11317630,-111
11317638,-127
11317646,-141
11317653,-147
11317661,-154
11317669,-148
11317677,-139
11317685,-121
11317693,-94
11317700,-69
11317708,-56
11317716,-49
11317724,-49
11317732,-42
11317739,-34
11317747,-33
11317755,-41
11317763,-59
11317771,-84
11317778,-100
11317786,-92
11317794,-49
11317802,2
11317810,20
11317818,2
11317825,-40
11317833,-79
11317841,-103
11317849,-107
11317857,-100
11317864,-106
11317872,-84
11317880,-34
11317888,-22
11317896,-208
11317903,-509
11317911,-116
11317919,1416
11317927,2807
11317935,2309
11317943,65
11317950,-1895
11317958,-2105
11317966,-1165
11317974,-489
11317982,-431
11317989,-413
11317997,-258
11318005,-173
11318013,-125
11318021,-82
11318028,-58
11318036,-34
11318044,-20
11318052,-13
11318060,-8
11318068,-10
11318075,1
11318083,21
11318091,41
11318099,45
11318107,37
11318114,20
11318122,-3
11318130,-24
11318138,-38
11318146,-56
11318153,-77
11318161,-96
11318169,-117
11318177,-132
11318185,-145
11318193,-156
11318200,-161
11318208,-156
11318216,-140
11318224,-110
11318232,-81
11318239,-63
11318247,-54
11318255,-51
11318263,-45
11318271,-39
11318278,-37
11318286,-42
11318294,-61
11318302,-89
11318310,-109
11318318,-94
11318325,-49
11318333,-8
11318341,2
11318349,-26
11318357,-66
11318364,-93
11318372,-107
11318380,-106
11318388,-106
11318396,-108
11318403,-71
11318411,-17
11318419,-40
11318427,-291
11318435,-449
11318443,333
11318450,1912
11318458,2649
11318466,1389
11318474,-883
11318482,-2135
11318489,-1708
11318497,-735
11318505,-328
11318513,-363
11318521,-299
11318528,-180
11318536,-134
11318544,-89
11318552,-61
11318560,-45
11318568,-26
11318575,-12
11318583,-2
11318591,3
11318599,8
11318607,13
11318614,26
11318622,36
11318630,42
11318638,40
11318646,24
11318653,0
11318661,-26
11318669,-51
11318677,-71
11318685,-91
11318693,-116
11318700,-148
11318708,-167
11318716,-171
11318724,-163
11318732,-154
11318739,-147
11318747,-126
11318755,-99
11318763,-72
11318771,-52
11318778,-39
11318786,-30
11318794,-27
11318802,-27
11318810,-32
11318818,-38
11318825,-51
11318833,-72
11318841,-88
11318849,-82
11318857,-48
11318864,-15
11318872,-9
11318880,-36
11318888,-72
11318896,-100
11318903,-111
11318911,-99
11318919,-89
11318927,-78
11318935,-36
11318943,4
11318950,-71
11318958,-337
11318966,-303
11318974,725
11318982,2152
11318989,2340
11318997,688
11319005,-1371
11319013,-2069
11319021,-1350
11319028,-486
11319036,-259
11319044,-310
11319052,-230
11319060,-139
11319068,-98
11319075,-65
11319083,-46
11319091,-38
11319099,-33
11319107,-25
11319114,-8
11319122,8
11319130,14
11319138,23
11319146,35
11319153,47
11319161,50
11319169,34
11319177,15
11319185,-9
11319193,-37
11319200,-64
11319208,-86
11319216,-107
11319224,-127
11319232,-146
11319239,-157
11319247,-161
11319255,-150
11319263,-140
11319271,-124
11319278,-104
11319286,-79
11319294,-55
11319302,-37
11319310,-32
11319318,-30
11319325,-27
11319333,-26
11319341,-29
11319349,-37
11319357,-54
11319364,-79
11319372,-99
11319380,-98
11319388,-71
11319396,-28
11319403,-5
11319411,-15
11319419,-53
11319427,-83
11319435,-103
11319443,-100
11319450,-97
11319458,-96
11319466,-65
11319474,-15
11319482,-36
11319489,-257
11319497,-441
11319505,247
11319513,1814
11319521,2717
11319528,1645
11319536,-638
11319544,-2084
11319552,-1826
11319560,-852
11319568,-374
11319575,-390
11319583,-337
11319591,-203
11319599,-146
11319607,-109
11319614,-81
11319622,-63
11319630,-39
11319638,-28
11319646,-27
11319653,-21
11319661,-7
11319669,14
11319677,28
11319685,34
11319693,35
11319700,24
11319708,10
11319716,-8
11319724,-22
11319732,-36
11319739,-54
11319747,-83
11319755,-105
11319763,-114
11319771,-123
11319778,-136
11319786,-147
11319794,-145
11319802,-127
11319810,-104
11319818,-81
11319825,-61
11319833,-49
11319841,-46
11319849,-48
11319857,-45
11319864,-35
11319872,-34
11319880,-42
11319888,-48
11319896,-57
11319903,-69
11319911,-90
11319919,-113
11319927,-114
11319935,-77
11319943,-23
11319950,9
11319958,-4
11319966,-41
11319974,-73
11319982,-92
11319989,-95
11319997,-87
11320005,-89
11320013,-68
11320021,-25
11320028,-19
11320036,-157
11320044,-401
11320052,-37
11320060,1406
11320068,2753
11320075,2300
11320083,93
11320091,-1902
11320099,-2169
11320107,-1228
11320114,-504
11320122,-424
11320130,-418
11320138,-259
11320146,-159
11320153,-110
11320161,-76
11320169,-68
11320177,-50
11320185,-38
11320193,-29
11320200,-20
11320208,-2
11320216,17
11320224,29
11320232,32
11320239,30
11320247,33
11320255,31
11320263,15
11320271,-12
11320278,-37
11320286,-53
11320294,-71
11320302,-100
11320310,-122
11320318,-129
11320325,-134
11320333,-149
11320341,-161
11320349,-146
11320357,-110
11320364,-81
11320372,-64
11320380,-48
11320388,-37
11320396,-42
11320403,-55
11320411,-59
11320419,-58
11320427,-75
11320435,-98
11320443,-95
11320450,-64
11320458,-32
11320466,-27
11320474,-50
11320482,-96
11320489,-156
11320497,-181
11320505,-150
11320513,-75
11320521,-5
11320528,28
11320536,24
11320544,-2
11320552,-54
11320560,-103
11320568,-123
11320575,-111
11320583,-86
11320591,-39
11320599,-5
11320607,-23
11320614,-189
11320622,-382
11320630,178
11320638,1701
11320646,2801
11320653,1968
11320661,-348
11320669,-2101
11320677,-2072
11320685,-1052
11320693,-401
11320700,-361
11320708,-338
11320716,-201
11320724,-149
11320732,-153
11320739,-162
11320747,-104
11320755,14
11320763,63
11320771,4
11320778,-53
11320786,-15
11320794,59
11320802,78
11320810,48
11320818,19
11320825,0
11320833,-13
11320841,-12
11320849,5
11320857,14
11320864,-20
11320872,-65
11320880,-93
11320888,-115
11320896,-139
11320903,-171
11320911,-197
11320919,-184
11320927,-131
11320935,-96
11320943,-110
11320950,-125
11320958,-92
11320966,-23
11320974,22
11320982,20
11320989,-2
11320997,-23
11321005,-69
11321013,-121
11321021,-134
11321028,-92
11321036,-39
11321044,-16
11321052,-45
11321060,-79
11321068,-80
11321075,-90
11321083,-139
11321091,-164
11321099,-118
11321107,-42
11321114,8
11321122,34
11321130,22
11321138,-33
11321146,-84
11321153,-87
11321161,-62
11321169,-52
11321177,-67
11321185,-51
11321193,10
11321200,27
11321208,-27
11321216,-165
11321224,-392
11321232,-55
11321239,1354
11321247,2728
11321255,2329
11321263,139
11321271,-1903
11321278,-2205
11321286,-1253
11321294,-501
11321302,-409
11321310,-390
11321318,-254
11321325,-179
11321333,-125
11321341,-74
11321349,-62
11321357,-48
11321364,-17
11321372,25
11321380,47
11321388,31
11321396,7
11321403,8
11321411,24
11321419,37
11321427,42
11321435,35
11321443,13
11321450,-13
11321458,-38
11321466,-55
11321474,-68
11321482,-87
11321489,-106
11321497,-119
11321505,-125
11321513,-126
11321521,-137
11321528,-154
11321536,-156
11321544,-124
11321552,-68
11321560,-30
11321568,-29
11321575,-52
11321583,-62
11321591,-61
11321599,-62
11321607,-68
11321614,-67
11321622,-62
11321630,-61
11321638,-70
11321646,-81
11321653,-86
11321661,-84
11321669,-96
11321677,-110
11321685,-103
11321693,-75
11321700,-67
11321708,-86
11321716,-105
11321724,-76
11321732,-7
11321739,42
11321747,28
11321755,-21
11321763,-69
11321771,-93
11321778,-91
11321786,-72
11321794,-73
11321802,-54
11321810,-28
11321818,-34
11321825,-188
11321833,-374
11321841,169
11321849,1680
11321857,2779
11321864,1959
11321872,-341
11321880,-2090
11321888,-2071
11321896,-1075
11321903,-446
11321911,-411
11321919,-379
11321927,-238
11321935,-163
11321943,-115
11321950,-75
11321958,-60
11321966,-42
11321974,-28
11321982,-17
11321989,0
11321997,11
11322005,21
11322013,29
11322021,33
11322028,35
11322036,23
11322044,7
11322052,-9
11322060,-23
11322068,-37
11322075,-55
11322083,-68
11322091,-79
11322099,-97
11322107,-125
11322114,-153
11322122,-172
11322130,-177
11322138,-167
11322146,-151
11322153,-119
11322161,-90
11322169,-70
11322177,-63
11322185,-57
11322193,-49
11322200,-47
11322208,-53
11322216,-59
11322224,-63
11322232,-71
11322239,-76
11322247,-81
11322255,-80
11322263,-78
11322271,-77
11322278,-79
11322286,-83
11322294,-96
11322302,-112
11322310,-111
11322318,-72
11322325,-11
11322333,24
11322341,10
11322349,-37
11322357,-72
11322364,-82
11322372,-76
11322380,-74
11322388,-79
11322396,-64
11322403,-20
11322411,3
11322419,-132
11322427,-352
11322435,52
11322443,1439
11322450,2599
11322458,1989
11322466,-162
11322474,-1950
11322482,-2053
11322489,-1099
11322497,-421
11322505,-344
11322513,-329
11322521,-206
11322528,-134
11322536,-93
11322544,-59
11322552,-43
11322560,-33
11322568,-27
11322575,-15
11322583,0
11322591,14
11322599,24
11322607,30
11322614,34
11322622,42
11322630,45
11322638,41
11322646,19
11322653,-15
11322661,-45
11322669,-59
11322677,-65
11322685,-85
11322693,-115
11322700,-147
11322708,-164
11322716,-171
11322724,-172
11322732,-165
11322739,-140
11322747,-108
11322755,-79
11322763,-62
11322771,-50
11322778,-42
11322786,-35
11322794,-36
11322802,-41
11322810,-45
11322818,-45
11322825,-45
11322833,-53
11322841,-68
11322849,-77
11322857,-81
11322864,-81
11322872,-87
11322880,-100
11322888,-112
11322896,-111
11322903,-73
11322911,-9
11322919,30
11322927,19
11322935,-22
11322943,-62
11322950,-78
11322958,-75
11322966,-68
11322974,-71
11322982,-51
11322989,-18
11322997,-12
11323005,-165
11323013,-366
11323021,132
11323028,1592
11323036,2687
11323044,1930
11323052,-295
11323060,-2010
11323068,-2007
11323075,-1039
11323083,-425
11323091,-388
11323099,-359
11323107,-224
11323114,-152
11323122,-106
11323130,-71
11323138,-52
11323146,-39
11323153,-34
11323161,-23
11323169,-11
11323177,1
11323185,10
11323193,22
11323200,36
11323208,42
11323216,39
11323224,27
11323232,10
11323239,-13
11323247,-40
11323255,-64
11323263,-85
11323271,-98
11323278,-116
11323286,-138
11323294,-152
11323302,-162
11323310,-165
11323318,-156
11323325,-138
11323333,-112
11323341,-83
11323349,-64
11323357,-46
11323364,-36
11323372,-39
11323380,-48
11323388,-58
11323396,-58
11323403,-55
11323411,-59
11323419,-70
11323427,-82
11323435,-85
11323443,-85
11323450,-85
11323458,-94
11323466,-109
11323474,-123
11323482,-112
11323489,-62
11323497,0
11323505,29
11323513,12
11323521,-31
11323528,-61
11323536,-79
11323544,-83
11323552,-80
11323560,-79
11323568,-54
11323575,-20
11323583,-30
11323591,-185
11323599,-377
11323607,164
11323614,1680
11323622,2808
11323630,2013
11323638,-290
11323646,-2068
11323653,-2080
11323661,-1093
11323669,-463
11323677,-424
11323685,-386
11323693,-237
11323700,-157
11323708,-110
11323716,-70
11323724,-52
11323732,-35
11323739,-28
11323747,-17
11323755,-5
11323763,2
11323771,11
11323778,21
11323786,34
11323794,39
11323802,36
11323810,28
11323818,14
11323825,-11
11323833,-37
11323841,-64
11323849,-86
11323857,-98
11323864,-116
11323872,-137
11323880,-157
11323888,-169
11323896,-173
11323903,-158
11323911,-139
11323919,-113
11323927,-91
11323935,-69
11323943,-49
11323950,-38
11323958,-35
11323966,-43
11323974,-47
11323982,-51
11323989,-54
11323997,-62
11324005,-67
11324013,-78
11324021,-81
11324028,-81
11324036,-82
11324044,-87
11324052,-99
11324060,-117
11324068,-124
11324075,-100
11324083,-41
11324091,19
11324099,37
11324107,8
11324114,-41
11324122,-72
11324130,-81
11324138,-71
11324146,-68
11324153,-73
11324161,-51
11324169,-19
11324177,-38
11324185,-237
11324193,-360
11324200,426
11324208,2052
11324216,2878
11324224,1632
11324232,-793
11324239,-2254
11324247,-1935
11324255,-915
11324263,-435
11324271,-444
11324278,-365
11324286,-216
11324294,-149
11324302,-99
11324310,-69
11324318,-52
11324325,-32
11324333,-17
11324341,-5
11324349,4
11324357,5
11324364,16
11324372,29
11324380,38
11324388,42
11324396,37
11324403,25
11324411,5
11324419,-23
11324427,-47
11324435,-69
11324443,-83
11324450,-94
11324458,-114
11324466,-137
11324474,-155
11324482,-167
11324489,-167
11324497,-155
11324505,-132
11324513,-104
11324521,-78
11324528,-62
11324536,-56
11324544,-51
11324552,-49
11324560,-44
11324568,-45
11324575,-49
11324583,-60
11324591,-68
11324599,-73
11324607,-75
11324614,-78
11324622,-82
11324630,-76
11324638,-74
11324646,-74
11324653,-89
11324661,-112
11324669,-121
11324677,-98
11324685,-38
11324693,21
11324700,35
11324708,8
11324716,-36
11324724,-65
11324732,-79
11324739,-83
11324747,-83
11324755,-84
11324763,-55
11324771,-15
11324778,-28
11324786,-219
11324794,-386
11324802,304
11324810,1904
11324818,2858
11324825,1780
11324833,-609
11324841,-2186
11324849,-1977
11324857,-960
11324864,-426
11324872,-425
11324880,-365
11324888,-220
11324896,-152
11324903,-101
11324911,-63
11324919,-44
11324927,-28
11324935,-21
11324943,-12
11324950,0
11324958,13
11324966,24
11324974,32
11324982,38
11324989,40
11324997,32
11325005,19
11325013,0
11325021,-25
11325028,-44
11325036,-61
11325044,-74
11325052,-83
11325060,-96
11325068,-118
11325075,-140
11325083,-155
11325091,-161
11325099,-149
11325107,-131
11325114,-104
11325122,-79
11325130,-62
11325138,-53
11325146,-48
11325153,-44
11325161,-44
11325169,-48
11325177,-57
11325185,-62
11325193,-64
11325200,-68
11325208,-74
11325216,-80
11325224,-83
11325232,-80
11325239,-80
11325247,-79
11325255,-80
11325263,-90
11325271,-105
11325278,-114
11325286,-93
11325294,-31
11325302,31
11325310,43
11325318,3
11325325,-47
11325333,-75
11325341,-81
11325349,-74
11325357,-76
11325364,-77
11325372,-45
11325380,-10
11325388,-49
11325396,-272
11325403,-348
11325411,548
11325419,2163
11325427,2792
11325435,1353
11325443,-1026
11325450,-2269
11325458,-1794
11325466,-800
11325474,-408
11325482,-430
11325489,-333
11325497,-199
11325505,-140
11325513,-95
11325521,-66
11325528,-49
11325536,-30
11325544,-18
11325552,-5
11325560,-2
11325568,2
11325575,10
11325583,25
11325591,29
11325599,29
11325607,24
11325614,8
11325622,-11
11325630,-32
11325638,-51
11325646,-69
11325653,-78
11325661,-83
11325669,-94
11325677,-114
11325685,-142
11325693,-160
11325700,-165
11325708,-151
11325716,-127
11325724,-94
11325732,-67
11325739,-56
11325747,-52
11325755,-49
11325763,-49
11325771,-52
11325778,-58
11325786,-59
11325794,-61
11325802,-63
11325810,-71
11325818,-79
11325825,-85
11325833,-85
11325841,-82
11325849,-79
11325857,-77
11325864,-83
11325872,-96
11325880,-113
11325888,-112
11325896,-71
11325903,-3
11325911,45
11325919,38
11325927,-4
11325935,-47
11325943,-73
11325950,-76
11325958,-68
11325966,-72
11325974,-63
11325982,-33
11325989,-16
11325997,-105
11326005,-348
11326013,-153
11326021,1113
11326028,2587
11326036,2507
11326044,512
11326052,-1669
11326060,-2266
11326068,-1432
11326075,-579
11326083,-402
11326091,-425
11326099,-289
11326107,-185
11326114,-128
11326122,-79
11326130,-57
11326138,-43
11326146,-22
11326153,-6
11326161,5
11326169,8
11326177,10
11326185,15
11326193,26
11326200,34
11326208,36
11326216,31
11326224,15
11326232,-7
11326239,-37
11326247,-57
11326255,-70
11326263,-70
11326271,-81
11326278,-107
11326286,-139
11326294,-163
11326302,-174
11326310,-172
11326318,-159
11326325,-126
11326333,-92
11326341,-60
11326349,-49
11326357,-47
11326364,-51
11326372,-50
11326380,-46
11326388,-43
11326396,-49
11326403,-62
11326411,-72
11326419,-73
11326427,-77
11326435,-80
11326443,-80
11326450,-80
11326458,-82
11326466,-90
11326474,-102
11326482,-106
11326489,-80
11326497,-27
11326505,23
11326513,23
11326521,-13
11326528,-56
11326536,-75
11326544,-81
11326552,-76
11326560,-73
11326568,-65
11326575,-34
11326583,0
11326591,-45
11326599,-277
11326607,-256
11326614,757
11326622,2262
11326630,2562
11326638,911
11326646,-1326
11326653,-2235
11326661,-1581
11326669,-646
11326677,-349
11326685,-377
11326693,-283
11326700,-166
11326708,-110
11326716,-63
11326724,-45
11326732,-41
11326739,-33
11326747,-20
11326755,0
11326763,14
11326771,22
11326778,32
11326786,43
11326794,49
11326802,43
11326810,34
11326818,30
11326825,14
11326833,-11
11326841,-42
11326849,-64
11326857,-82
11326864,-99
11326872,-129
11326880,-162
11326888,-188
11326896,-196
11326903,-186
11326911,-162
11326919,-138
11326927,-112
11326935,-82
11326943,-52
11326950,-33
11326958,-33
11326966,-40
11326974,-45
11326982,-42
11326989,-39
11326997,-47
11327005,-58
11327013,-77
11327021,-83
11327028,-85
11327036,-83
11327044,-90
11327052,-99
11327060,-112
11327068,-112
11327075,-86
11327083,-36
11327091,3
11327099,5
11327107,-22
11327114,-58
11327122,-77
11327130,-84
11327138,-76
11327146,-73
11327153,-71
11327161,-45
11327169,-10
11327177,-39
11327185,-249
11327193,-263
11327200,681
11327208,2195
11327216,2616
11327224,1075
11327232,-1190
11327239,-2228
11327247,-1662
11327255,-716
11327263,-373
11327271,-387
11327278,-292
11327286,-176
11327294,-128
11327302,-81
11327310,-54
11327318,-34
11327325,-31
11327333,-29
11327341,-18
11327349,-2
11327357,13
11327364,24
11327372,32
11327380,45
11327388,50
11327396,47
11327403,33
11327411,12
11327419,-11
11327427,-33
11327435,-58
11327443,-82
11327450,-108
11327458,-137
11327466,-163
11327474,-172
11327482,-171
11327489,-163
11327497,-153
11327505,-132
11327513,-100
11327521,-71
11327528,-55
11327536,-42
11327544,-31
11327552,-29
11327560,-33
11327568,-44
11327575,-49
11327583,-52
11327591,-59
11327599,-65
11327607,-74
11327614,-79
11327622,-80
11327630,-84
11327638,-92
11327646,-109
11327653,-122
11327661,-101
11327669,-50
11327677,5
11327685,19
11327693,-8
11327700,-52
11327708,-78
11327716,-85
11327724,-71
11327732,-70
11327739,-76
11327747,-52
11327755,-16
11327763,-46
11327771,-255
11327778,-332
11327786,543
11327794,2147
11327802,2802
11327810,1399
11327818,-984
11327825,-2270
11327833,-1828
11327841,-826
11327849,-410
11327857,-428
11327864,-338
11327872,-204
11327880,-145
11327888,-101
11327896,-72
11327903,-54
11327911,-37
11327919,-27
11327927,-18
11327935,-11
11327943,0
11327950,16
11327958,35
11327966,47
11327974,44
11327982,42
11327989,33
11327997,18
11328005,-7
11328013,-37
11328021,-66
11328028,-86
11328036,-109
11328044,-132
11328052,-154
11328060,-168
11328068,-171
11328075,-163
11328083,-152
11328091,-125
11328099,-95
11328107,-69
11328114,-51
11328122,-40
11328130,-36
11328138,-35
11328146,-36
11328153,-43
11328161,-47
11328169,-49
11328177,-52
11328185,-59
11328193,-71
11328200,-78
11328208,-78
11328216,-79
11328224,-83
11328232,-93
11328239,-109
11328247,-120
11328255,-104
11328263,-53
11328271,9
11328278,31
11328286,3
11328294,-44
11328302,-74
11328310,-86
11328318,-79
11328325,-76
11328333,-77
11328341,-55
11328349,-21
11328357,-26
11328364,-182
11328372,-379
11328380,180
11328388,1740
11328396,2887
11328403,2056
11328411,-312
11328419,-2121
11328427,-2121
11328435,-1117
11328443,-486
11328450,-453
11328458,-407
11328466,-242
11328474,-160
11328482,-111
11328489,-75
11328497,-57
11328505,-34
11328513,-24
11328521,-20
11328528,-14
11328536,1
11328544,18
11328552,29
11328560,38
11328568,43
11328575,48
11328583,38
11328591,22
11328599,-5
11328607,-31
11328614,-57
11328622,-80
11328630,-101
11328638,-127
11328646,-156
11328653,-174
11328661,-182
11328669,-173
11328677,-159
11328685,-140
11328693,-120
11328700,-96
11328708,-74
11328716,-59
11328724,-49
11328732,-43
11328739,-39
11328747,-36
11328755,-42
11328763,-49
11328771,-57
11328778,-62
11328786,-65
11328794,-73
11328802,-79
11328810,-85
11328818,-88
11328825,-86
11328833,-83
11328841,-83
11328849,-84
11328857,-93
11328864,-112
11328872,-111
11328880,-81
11328888,-20
11328896,28
11328903,37
11328911,0
11328919,-42
11328927,-69
11328935,-79
11328943,-76
11328950,-76
11328958,-77
11328966,-49
11328974,-12
11328982,-34
11328989,-230
11328997,-370
11329005,384
11329013,2004
11329021,2887
11329028,1706
11329036,-708
11329044,-2233
11329052,-1964
11329060,-947
11329068,-441
11329075,-443
11329083,-369
11329091,-223
11329099,-154
11329107,-103
11329114,-70
11329122,-54
11329130,-36
11329138,-24
11329146,-11
11329153,3
11329161,15
11329169,29
11329177,33
11329185,38
11329193,37
11329200,35
11329208,34
11329216,23
11329224,1
11329232,-32
11329239,-59
11329247,-78
11329255,-100
11329263,-121
11329271,-144
11329278,-162
11329286,-172
11329294,-173
11329302,-160
11329310,-141
11329318,-115
11329325,-91
11329333,-70
11329341,-53
11329349,-43
11329357,-43
11329364,-41
11329372,-42
11329380,-47
11329388,-54
11329396,-57
11329403,-62
11329411,-67
11329419,-74
11329427,-76
11329435,-80
11329443,-81
11329450,-78
11329458,-75
11329466,-75
11329474,-77
11329482,-75
11329489,-74
11329497,-75
11329505,-85
11329513,-101
11329521,-105
11329528,-78
11329536,-27
11329544,26
11329552,34
11329560,0
11329568,-45
11329575,-72
11329583,-86
11329591,-80
11329599,-74
11329607,-75
11329614,-51
11329622,-18
11329630,-32
11329638,-211
11329646,-385
11329653,251
11329661,1820
11329669,2836
11329677,1859
11329685,-496
11329693,-2143
11329700,-2014
11329708,-1018
11329716,-455
11329724,-440
11329732,-382
11329739,-230
11329747,-157
11329755,-110
11329763,-74
11329771,-57
11329778,-39
11329786,-27
11329794,-14
11329802,-3
11329810,7
11329818,15
11329825,27
11329833,32
11329841,29
11329849,30
11329857,24
11329864,8
11329872,-14
11329880,-41
11329888,-60
11329896,-77
11329903,-88
11329911,-105
11329919,-132
11329927,-150
11329935,-163
11329943,-165
11329950,-159
11329958,-147
11329966,-124
11329974,-94
11329982,-72
11329989,-55
11329997,-46
11330005,-43
11330013,-47
11330021,-47
11330028,-49
11330036,-51
11330044,-54
11330052,-60
11330060,-67
11330068,-73
11330075,-75
11330083,-75
11330091,-76
11330099,-77
11330107,-79
11330114,-80
11330122,-80
11330130,-76
11330138,-68
11330146,-61
11330153,-63
11330161,-75
11330169,-97
11330177,-101
11330185,-74
11330193,-22
11330200,25
11330208,34
11330216,2
11330224,-40
11330232,-70
11330239,-87
11330247,-83
11330255,-79
11330263,-83
11330271,-56
11330278,-16
11330286,-18
11330294,-190
11330302,-370
11330310,239
11330318,1778
11330325,2786
11330333,1834
11330341,-481
11330349,-2114
11330357,-1997
11330364,-1006
11330372,-443
11330380,-423
11330388,-369
11330396,-222
11330403,-153
11330411,-103
11330419,-68
11330427,-48
11330435,-31
11330443,-24
11330450,-15
11330458,-6
11330466,2
11330474,11
11330482,22
11330489,33
11330497,35
11330505,36
11330513,27
11330521,10
11330528,-11
11330536,-36
11330544,-60
11330552,-81
11330560,-94
11330568,-108
11330575,-129
11330583,-150
11330591,-169
11330599,-176
11330607,-167
11330614,-150
11330622,-123
11330630,-94
11330638,-70
11330646,-56
11330653,-47
11330661,-40
11330669,-36
11330677,-37
11330685,-44
11330693,-56
11330700,-64
11330708,-69
11330716,-72
11330724,-77
11330732,-80
11330739,-83
11330747,-84
11330755,-83
11330763,-80
11330771,-80
11330778,-79
11330786,-75
11330794,-74
11330802,-74
11330810,-81
11330818,-95
11330825,-105
11330833,-89
11330841,-41
11330849,12
11330857,34
11330864,11
11330872,-31
11330880,-60
11330888,-79
11330896,-82
11330903,-78
11330911,-78
11330919,-62
11330927,-22
11330935,-13
11330943,-142
11330950,-372
11330958,8
11330966,1422
11330974,2708
11330982,2214
11330989,31
11330997,-1913
11331005,-2155
11331013,-1217
11331021,-492
11331028,-403
11331036,-388
11331044,-250
11331052,-163
11331060,-110
11331068,-67
11331075,-44
11331083,-27
11331091,-22
11331099,-13
11331107,-4
11331114,5
11331122,14
11331130,24
11331138,35
11331146,44
11331153,47
11331161,38
11331169,21
11331177,-4
11331185,-31
11331193,-56
11331200,-78
11331208,-93
11331216,-110
11331224,-131
11331232,-158
11331239,-176
11331247,-182
11331255,-175
11331263,-162
11331271,-139
11331278,-110
11331286,-78
11331294,-54
11331302,-39
11331310,-38
11331318,-43
11331325,-46
11331333,-48
11331341,-53
11331349,-63
11331357,-76
11331364,-80
11331372,-83
11331380,-85
11331388,-85
11331396,-77
11331403,-72
11331411,-73
11331419,-74
11331427,-73
11331435,-72
11331443,-76
11331450,-95
11331458,-113
11331466,-102
11331474,-46
11331482,19
11331489,45
11331497,12
11331505,-37
11331513,-71
11331521,-84
11331528,-82
11331536,-72
11331544,-76
11331552,-70
11331560,-34
11331568,-5
11331575,-102
11331583,-329
11331591,-47
11331599,1245
11331607,2547
11331614,2226
11331622,186
11331630,-1793
11331638,-2154
11331646,-1262
11331653,-488
11331661,-358
11331669,-368
11331677,-246
11331685,-153
11331693,-101
11331700,-59
11331708,-40
11331716,-27
11331724,-18
11331732,-9
11331739,-4
11331747,1
11331755,14
11331763,31
11331771,50
11331778,66
11331786,65
11331794,62
11331802,47
11331810,25
11331818,-3
11331825,-29
11331833,-63
11331841,-95
11331849,-128
11331857,-168
11331864,-207
11331872,-225
11331880,-220
11331888,-204
11331896,-188
11331903,-163
11331911,-127
11331919,-86
11331927,-61
11331935,-52
11331943,-39
11331950,-26
11331958,-18
11331966,-27
11331974,-43
11331982,-54
11331989,-58
11331997,-66
11332005,-74
11332013,-87
11332021,-92
11332028,-89
11332036,-77
11332044,-75
11332052,-90
11332060,-117
11332068,-118
11332075,-73
11332083,-7
11332091,29
11332099,13
11332107,-29
11332114,-61
11332122,-80
11332130,-89
11332138,-78
11332146,-66
11332153,-60
11332161,-34
11332169,-3
11332177,-47
11332185,-258
11332193,-205
11332200,812
11332208,2283
11332216,2541
11332224,878
11332232,-1348
11332239,-2243
11332247,-1591
11332255,-656
11332263,-349
11332271,-368
11332278,-271
11332286,-162
11332294,-113
11332302,-71
11332310,-50
11332318,-34
11332325,-24
11332333,-17
11332341,-6
11332349,9
11332357,22
11332364,34
11332372,45
11332380,55
11332388,70
11332396,69
11332403,57
11332411,31
11332419,1
11332427,-28
11332435,-56
11332443,-90
11332450,-129
11332458,-168
11332466,-194
11332474,-203
11332482,-200
11332489,-190
11332497,-177
11332505,-157
11332513,-131
11332521,-94
11332528,-61
11332536,-33
11332544,-24
11332552,-26
11332560,-27
11332568,-23
11332575,-24
11332583,-34
11332591,-46
11332599,-59
11332607,-68
11332614,-73
11332622,-75
11332630,-77
11332638,-87
11332646,-104
11332653,-121
11332661,-122
11332669,-97
11332677,-47
11332685,4
11332693,15
11332700,-6
11332708,-43
11332716,-64
11332724,-73
11332732,-70
11332739,-70
11332747,-70
11332755,-46
11332763,-19
11332771,-34
11332778,-214
11332786,-370
11332794,314
11332802,1892
11332810,2832
11332818,1770
11332825,-596
11332833,-2167
11332841,-1972
11332849,-970
11332857,-439
11332864,-427
11332872,-360
11332880,-216
11332888,-155
11332896,-108
11332903,-76
11332911,-53
11332919,-36
11332927,-27
11332935,-19
11332943,-10
11332950,3
11332958,16
11332966,36
11332974,51
11332982,59
11332989,63
11332997,61
11333005,44
11333013,13
11333021,-20
11333028,-47
11333036,-79
11333044,-115
11333052,-157
11333060,-182
11333068,-195
11333075,-193
11333083,-189
11333091,-181
11333099,-164
11333107,-136
11333114,-104
11333122,-74
11333130,-54
11333138,-44
11333146,-39
11333153,-35
11333161,-36
11333169,-41
11333177,-50
11333185,-54
11333193,-59
11333200,-65
11333208,-73
11333216,-83
11333224,-88
11333232,-88
11333239,-87
11333247,-92
11333255,-108
11333263,-113
11333271,-81
11333278,-23
11333286,21
11333294,19
11333302,-16
11333310,-50
11333318,-70
11333325,-81
11333333,-79
11333341,-80
11333349,-74
11333357,-41
11333364,-14
11333372,-64
11333380,-288
11333388,-311
11333396,674
11333403,2315
11333411,2864
11333419,1307
11333427,-1125
11333435,-2331
11333443,-1812
11333450,-815
11333458,-438
11333466,-457
11333474,-348
11333482,-211
11333489,-149
11333497,-99
11333505,-68
11333513,-48
11333521,-32
11333528,-21
11333536,-8
11333544,2
11333552,14
11333560,25
11333568,33
11333575,43
11333583,56
11333591,61
11333599,56
11333607,36
11333614,5
11333622,-28
11333630,-58
11333638,-89
11333646,-123
11333653,-157
11333661,-183
11333669,-195
11333677,-194
11333685,-187
11333693,-172
11333700,-152
11333708,-124
11333716,-97
11333724,-74
11333732,-61
11333739,-48
11333747,-40
11333755,-35
11333763,-40
11333771,-49
11333778,-57
11333786,-61
11333794,-67
11333802,-70
11333810,-75
11333818,-78
11333825,-82
11333833,-82
11333841,-90
11333849,-104
11333857,-123
11333864,-118
11333872,-74
11333880,-7
11333888,28
11333896,12
11333903,-31
11333911,-67
11333919,-81
11333927,-87
11333935,-79
11333943,-83
11333950,-74
11333958,-38
11333966,-12
11333974,-82
11333982,-331
11333989,-274
11333997,870
11334005,2505
11334013,2799
11334021,1000
11334028,-1394
11334036,-2357
11334044,-1679
11334052,-729
11334060,-442
11334068,-460
11334075,-327
11334083,-200
11334091,-142
11334099,-91
11334107,-61
11334114,-43
11334122,-30
11334130,-21
11334138,-10
11334146,3
11334153,17
11334161,31
11334169,40
11334177,53
11334185,63
11334193,60
11334200,45
11334208,19
11334216,-7
11334224,-34
11334232,-63
11334239,-91
11334247,-119
11334255,-151
11334263,-177
11334271,-190
11334278,-190
11334286,-186
11334294,-168
11334302,-145
11334310,-117
11334318,-90
11334325,-69
11334333,-56
11334341,-45
11334349,-42
11334357,-39
11334364,-40
11334372,-45
11334380,-52
11334388,-59
11334396,-68
11334403,-74
11334411,-77
11334419,-79
11334427,-82
11334435,-88
11334443,-100
11334450,-115
11334458,-113
11334466,-70
11334474,-4
11334482,32
11334489,14
11334497,-34
11334505,-71
11334513,-87
11334521,-88
11334528,-80
11334536,-81
11334544,-68
11334552,-34
11334560,-17
11334568,-104
11334575,-365
11334583,-203
11334591,1078
11334599,2647
11334607,2668
11334614,669
11334622,-1627
11334630,-2335
11334638,-1526
11334646,-637
11334653,-431
11334661,-443
11334669,-303
11334677,-185
11334685,-127
11334693,-82
11334700,-59
11334708,-43
11334716,-28
11334724,-19
11334732,-7
11334739,6
11334747,19
11334755,31
11334763,44
11334771,50
11334778,56
11334786,48
11334794,28
11334802,3
11334810,-21
11334818,-46
11334825,-69
11334833,-86
11334841,-113
11334849,-146
11334857,-170
11334864,-180
11334872,-177
11334880,-169
11334888,-157
11334896,-137
11334903,-104
11334911,-72
11334919,-47
11334927,-37
11334935,-40
11334943,-41
11334950,-37
11334958,-36
11334966,-45
11334974,-54
11334982,-64
11334989,-70
11334997,-76
11335005,-79
11335013,-81
11335021,-82
11335028,-88
11335036,-111
11335044,-128
11335052,-110
11335060,-55
11335068,8
11335075,34
11335083,11
11335091,-36
11335099,-70
11335107,-86
11335114,-86
11335122,-76
11335130,-80
11335138,-69
11335146,-34
11335153,-14
11335161,-112
11335169,-377
11335177,-173
11335185,1141
11335193,2654
11335200,2555
11335208,513
11335216,-1694
11335224,-2274
11335232,-1427
11335239,-580
11335247,-412
11335255,-418
11335263,-277
11335271,-172
11335278,-121
11335286,-73
11335294,-51
11335302,-34
11335310,-21
11335318,-12
11335325,-2
11335333,11
11335341,20
11335349,28
11335357,41
11335364,50
11335372,47
11335380,37
11335388,21
11335396,-2
11335403,-22
11335411,-45
11335419,-64
11335427,-83
11335435,-107
11335443,-134
11335450,-153
11335458,-164
11335466,-172
11335474,-171
11335482,-159
11335489,-132
11335497,-97
11335505,-68
11335513,-47
11335521,-39
11335528,-38
11335536,-39
11335544,-37
11335552,-42
11335560,-50
11335568,-61
11335575,-68
11335583,-69
11335591,-74
11335599,-81
11335607,-82
11335614,-79
11335622,-79
11335630,-83
11335638,-99
11335646,-114
11335653,-113
11335661,-81
11335669,-19
11335677,28
11335685,31
11335693,-7
11335700,-49
11335708,-75
11335716,-87
11335724,-80
11335732,-79
11335739,-76
11335747,-49
11335755,-20
11335763,-51
11335771,-263
11335778,-363
11335786,476
11335794,2097
11335802,2834
11335810,1496
11335818,-905
11335825,-2261
11335833,-1862
11335841,-851
11335849,-411
11335857,-421
11335864,-341
11335872,-205
11335880,-141
11335888,-90
11335896,-56
11335903,-38
11335911,-24
11335919,-15
11335927,-4
11335935,7
11335943,17
11335950,25
11335958,33
11335966,41
11335974,48
11335982,46
11335989,33
11335997,9
11336005,-21
11336013,-49
11336021,-65
11336028,-71
11336036,-83
11336044,-106
11336052,-135
11336060,-162
11336068,-175
11336075,-175
11336083,-163
11336091,-135
11336099,-108
11336107,-81
11336114,-63
11336122,-51
11336130,-43
11336138,-37
11336146,-39
11336153,-45
11336161,-57
11336169,-63
11336177,-66
11336185,-70
11336193,-75
11336200,-80
11336208,-83
11336216,-81
11336224,-81
11336232,-80
11336239,-80
11336247,-85
11336255,-100
11336263,-115
11336271,-102
11336278,-51
11336286,12
11336294,45
11336302,22
11336310,-26
11336318,-67
11336325,-86
11336333,-83
11336341,-73
11336349,-78
11336357,-68
11336364,-33
11336372,-10
11336380,-99
11336388,-354
11336396,-168
11336403,1104
11336411,2588
11336419,2517
11336427,517
11336435,-1674
11336443,-2271
11336450,-1434
11336458,-580
11336466,-399
11336474,-407
11336482,-275
11336489,-173
11336497,-124
11336505,-74
11336513,-50
11336521,-33
11336528,-30
11336536,-22
11336544,-5
11336552,7
11336560,15
11336568,29
11336575,40
11336583,44
11336591,43
11336599,31
11336607,15
11336614,-4
11336622,-26
11336630,-47
11336638,-68
11336646,-85
11336653,-102
11336661,-125
11336669,-154
11336677,-173
11336685,-182
11336693,-177
11336700,-159
11336708,-132
11336716,-102
11336724,-77
11336732,-58
11336739,-44
11336747,-36
11336755,-36
11336763,-42
11336771,-46
11336778,-50
11336786,-56
11336794,-72
11336802,-84
11336810,-90
11336818,-87
11336825,-80
11336833,-79
11336841,-80
11336849,-82
11336857,-77
11336864,-72
11336872,-74
11336880,-86
11336888,-108
11336896,-114
11336903,-79
11336911,-18
11336919,31
11336927,31
11336935,-11
11336943,-50
11336950,-74
11336958,-87
11336966,-85
11336974,-80
11336982,-78
11336989,-57
11336997,-24
11337005,-40
11337013,-230
11337021,-360
11337028,366
11337036,1920
11337044,2755
11337052,1604
11337060,-729
11337068,-2184
11337075,-1904
11337083,-909
11337091,-418
11337099,-414
11337107,-343
11337114,-202
11337122,-133
11337130,-85
11337138,-59
11337146,-47
11337153,-30
11337161,-19
11337169,-8
11337177,-5
11337185,2
11337193,16
11337200,37
11337208,53
11337216,56
11337224,51
11337232,42
11337239,25
11337247,3
11337255,-23
11337263,-51
11337271,-73
11337278,-94
11337286,-112
11337294,-143
11337302,-174
11337310,-196
11337318,-203
11337325,-196
11337333,-173
11337341,-140
11337349,-97
11337357,-65
11337364,-49
11337372,-40
11337380,-37
11337388,-35
11337396,-42
11337403,-54
11337411,-64
11337419,-74
11337427,-82
11337435,-89
11337443,-86
11337450,-77
11337458,-73
11337466,-79
11337474,-89
11337482,-88
11337489,-82
11337497,-96
11337505,-113
11337513,-93
11337521,-33
11337528,17
11337536,23
11337544,-13
11337552,-54
11337560,-71
11337568,-74
11337575,-73
11337583,-71
11337591,-78
11337599,-64
11337607,-15
11337614,8
11337622,-112
11337630,-333
11337638,34
11337646,1396
11337653,2609
11337661,2100
11337669,-30
11337677,-1904
11337685,-2113
11337693,-1185
11337700,-461
11337708,-357
11337716,-345
11337724,-222
11337732,-141
11337739,-101
11337747,-65
11337755,-41
11337763,-22
11337771,-18
11337778,-15
11337786,-5
11337794,16
11337802,34
11337810,42
11337818,47
11337825,55
11337833,63
11337841,61
11337849,46
11337857,17
11337864,-16
11337872,-42
11337880,-67
11337888,-96
11337896,-135
11337903,-175
11337911,-205
11337919,-212
11337927,-208
11337935,-194
11337943,-170
11337950,-142
11337958,-111
11337966,-78
11337974,-54
11337982,-39
11337989,-33
11337997,-35
11338005,-39
11338013,-36
11338021,-37
11338028,-38
11338036,-49
11338044,-60
11338052,-77
11338060,-87
11338068,-94
11338075,-90
11338083,-86
11338091,-80
11338099,-91
11338107,-102
11338114,-112
11338122,-100
11338130,-66
11338138,-15
11338146,18
11338153,15
11338161,-19
11338169,-53
11338177,-78
11338185,-84
11338193,-76
11338200,-75
11338208,-66
11338216,-32
11338224,-4
11338232,-62
11338239,-298
11338247,-242
11338255,838
11338263,2362
11338271,2602
11338278,874
11338286,-1377
11338294,-2256
11338302,-1581
11338310,-669
11338318,-390
11338325,-404
11338333,-285
11338341,-179
11338349,-131
11338357,-83
11338364,-52
11338372,-38
11338380,-33
11338388,-28
11338396,-15
11338403,-1
11338411,12
11338419,32
11338427,48
11338435,59
11338443,68
11338450,66
11338458,52
11338466,35
11338474,7
11338482,-21
11338489,-53
11338497,-89
11338505,-125
11338513,-165
11338521,-195
11338528,-207
11338536,-203
11338544,-190
11338552,-170
11338560,-146
11338568,-114
11338575,-82
11338583,-61
11338591,-46
11338599,-38
11338607,-33
11338614,-37
11338622,-41
11338630,-46
11338638,-50
11338646,-58
11338653,-67
11338661,-74
11338669,-77
11338677,-78
11338685,-80
11338693,-81
11338700,-76
11338708,-74
11338716,-77
11338724,-93
11338732,-114
11338739,-119
11338747,-86
11338755,-24
11338763,26
11338771,32
11338778,-6
11338786,-48
11338794,-65
11338802,-72
11338810,-68
11338818,-68
11338825,-77
11338833,-58
11338841,-21
11338849,-20
11338857,-176
11338864,-385
11338872,128
11338880,1652
11338888,2822
11338896,2074
11338903,-232
11338911,-2050
11338919,-2100
11338927,-1121
11338935,-478
11338943,-431
11338950,-390
11338958,-239
11338966,-159
11338974,-113
11338982,-77
11338989,-56
11338997,-36
11339005,-23
11339013,-15
11339021,-8
11339028,6
11339036,21
11339044,34
11339052,47
11339060,58
11339068,64
11339075,57
11339083,35
11339091,11
11339099,-13
11339107,-39
11339114,-72
11339122,-108
11339130,-147
11339138,-178
11339146,-194
11339153,-195
11339161,-190
11339169,-177
11339177,-163
11339185,-132
11339193,-103
11339200,-75
11339208,-57
11339216,-47
11339224,-47
11339232,-50
11339239,-51
11339247,-52
11339255,-56
11339263,-56
11339271,-57
11339278,-65
11339286,-73
11339294,-78
11339302,-76
11339310,-79
11339318,-84
11339325,-84
11339333,-80
11339341,-78
11339349,-81
11339357,-101
11339364,-111
11339372,-99
11339380,-54
11339388,5
11339396,34
11339403,21
11339411,-18
11339419,-58
11339427,-80
11339435,-88
11339443,-78
11339450,-78
11339458,-75
11339466,-46
11339474,-19
11339482,-73
11339489,-312
11339497,-303
11339505,745
11339513,2369
11339521,2782
11339528,1120
11339536,-1256
11339544,-2310
11339552,-1706
11339560,-744
11339568,-424
11339575,-448
11339583,-326
11339591,-194
11339599,-138
11339607,-90
11339614,-67
11339622,-47
11339630,-31
11339638,-24
11339646,-12
11339653,4
11339661,20
11339669,33
11339677,40
11339685,53
11339693,65
11339700,67
11339708,51
11339716,27
11339724,3
11339732,-29
11339739,-62
11339747,-96
11339755,-122
11339763,-152
11339771,-181
11339778,-194
11339786,-199
11339794,-192
11339802,-176
11339810,-157
11339818,-126
11339825,-93
11339833,-67
11339841,-50
11339849,-42
11339857,-43
11339864,-44
11339872,-44
11339880,-45
11339888,-48
11339896,-53
11339903,-58
11339911,-65
11339919,-72
11339927,-74
11339935,-75
11339943,-77
11339950,-77
11339958,-79
11339966,-77
11339974,-82
11339982,-96
11339989,-112
11339997,-94
11340005,-44
11340013,17
11340021,39
11340028,15
11340036,-31
11340044,-66
11340052,-80
11340060,-85
11340068,-77
11340075,-80
11340083,-69
11340091,-32
11340099,-14
11340107,-98
11340114,-345
11340122,-217
11340130,992
11340138,2556
11340146,2670
11340153,771
11340161,-1526
11340169,-2316
11340177,-1559
11340185,-654
11340193,-424
11340200,-445
11340208,-311
11340216,-189
11340224,-132
11340232,-84
11340239,-55
11340247,-38
11340255,-22
11340263,-18
11340271,-5
11340278,5
11340286,21
11340294,31
11340302,43
11340310,54
11340318,64
11340325,57
11340333,41
11340341,15
11340349,-10
11340357,-42
11340364,-68
11340372,-97
11340380,-126
11340388,-158
11340396,-186
11340403,-198
11340411,-194
11340419,-188
11340427,-168
11340435,-143
11340443,-114
11340450,-89
11340458,-66
11340466,-52
11340474,-41
11340482,-43
11340489,-44
11340497,-47
11340505,-49
11340513,-56
11340521,-61
11340528,-65
11340536,-65
11340544,-69
11340552,-74
11340560,-78
11340568,-81
11340575,-79
11340583,-77
11340591,-75
11340599,-75
11340607,-76
11340614,-83
11340622,-95
11340630,-97
11340638,-64
11340646,-5
11340653,36
11340661,25
11340669,-18
11340677,-58
11340685,-73
11340693,-78
11340700,-71
11340708,-72
11340716,-79
11340724,-60
11340732,-21
11340739,-35
11340747,-230
11340755,-378
11340763,347
11340771,1943
11340778,2822
11340786,1672
11340794,-704
11340802,-2198
11340810,-1928
11340818,-924
11340825,-427
11340833,-431
11340841,-359
11340849,-214
11340857,-150
11340864,-105
11340872,-74
11340880,-53
11340888,-34
11340896,-22
11340903,-15
11340911,-11
11340919,3
11340927,20
11340935,38
11340943,48
11340950,50
11340958,46
11340966,37
11340974,25
11340982,3
11340989,-24
11340997,-49
11341005,-65
11341013,-90
11341021,-123
11341028,-160
11341036,-187
11341044,-198
11341052,-200
11341060,-188
11341068,-160
11341075,-126
11341083,-100
11341091,-79
11341099,-61
11341107,-49
11341114,-43
11341122,-46
11341130,-55
11341138,-57
11341146,-53
11341153,-47
11341161,-53
11341169,-72
11341177,-86
11341185,-90
11341193,-89
11341200,-88
11341208,-84
11341216,-73
11341224,-70
11341232,-74
11341239,-87
11341247,-95
11341255,-98
11341263,-78
11341271,-39
11341278,8
11341286,21
11341294,-3
11341302,-39
11341310,-60
11341318,-72
11341325,-77
11341333,-73
11341341,-72
11341349,-64
11341357,-32
11341364,-9
11341372,-84
11341380,-310
11341388,-140
11341396,1045
11341403,2458
11341411,2409
11341419,509
11341427,-1617
11341435,-2222
11341443,-1416
11341450,-558
11341458,-359
11341466,-383
11341474,-269
11341482,-162
11341489,-102
11341497,-61
11341505,-43
11341513,-30
11341521,-25
11341528,-18
11341536,-2
11341544,15
11341552,31
11341560,45
11341568,60
11341575,67
11341583,71
11341591,70
11341599,62
11341607,45
11341614,10
11341622,-31
11341630,-69
11341638,-99
11341646,-131
11341653,-171
11341661,-207
11341669,-222
11341677,-221
11341685,-209
11341693,-187
11341700,-161
11341708,-127
11341716,-95
11341724,-73
11341732,-60
11341739,-42
11341747,-24
11341755,-22
11341763,-33
11341771,-47
11341778,-54
11341786,-46
11341794,-42
11341802,-58
11341810,-79
11341818,-91
11341825,-84
11341833,-75
11341841,-81
11341849,-90
11341857,-103
11341864,-114
11341872,-101
11341880,-57
11341888,3
11341896,28
11341903,6
11341911,-39
11341919,-66
11341927,-78
11341935,-84
11341943,-75
11341950,-76
11341958,-73
11341966,-38
11341974,-4
11341982,-60
11341989,-290
11341997,-209
11342005,880
11342013,2373
11342021,2553
11342028,800
11342036,-1419
11342044,-2241
11342052,-1550
11342060,-646
11342068,-377
11342075,-391
11342083,-280
11342091,-173
11342099,-125
11342107,-81
11342114,-56
11342122,-38
11342130,-25
11342138,-14
11342146,1
11342153,12
11342161,23
11342169,40
11342177,55
11342185,67
11342193,75
11342200,72
11342208,57
11342216,27
11342224,-7
11342232,-31
11342239,-56
11342247,-89
11342255,-133
11342263,-176
11342271,-200
11342278,-207
11342286,-209
11342294,-207
11342302,-190
11342310,-156
11342318,-115
11342325,-79
11342333,-60
11342341,-51
11342349,-43
11342357,-35
11342364,-28
11342372,-25
11342380,-30
11342388,-40
11342396,-52
11342403,-57
11342411,-64
11342419,-67
11342427,-73
11342435,-79
11342443,-85
11342450,-88
11342458,-86
11342466,-90
11342474,-103
11342482,-110
11342489,-85
11342497,-31
11342505,21
11342513,23
11342521,-12
11342528,-49
11342536,-65
11342544,-68
11342552,-71
11342560,-77
11342568,-80
11342575,-54
11342583,-13
11342591,-22
11342599,-186
11342607,-385
11342614,180
11342622,1720
11342630,2835
11342638,1995
11342646,-337
11342653,-2098
11342661,-2079
11342669,-1080
11342677,-462
11342685,-427
11342693,-381
11342700,-229
11342708,-149
11342716,-102
11342724,-64
11342732,-52
11342739,-34
11342747,-22
11342755,-11
11342763,1
11342771,13
11342778,23
11342786,40
11342794,58
11342802,76
11342810,78
11342818,69
11342825,48
11342833,25
11342841,-4
11342849,-31
11342857,-70
11342864,-112
11342872,-155
11342880,-189
11342888,-213
11342896,-215
11342903,-204
11342911,-188
11342919,-164
11342927,-134
11342935,-105
11342943,-84
11342950,-65
11342958,-51
11342966,-39
11342974,-34
11342982,-34
11342989,-37
11342997,-44
11343005,-50
11343013,-58
11343021,-64
11343028,-73
11343036,-82
11343044,-81
11343052,-76
11343060,-75
11343068,-77
11343075,-90
11343083,-107
11343091,-116
11343099,-97
11343107,-50
11343114,10
11343122,34
11343130,14
11343138,-34
11343146,-69
11343153,-83
11343161,-86
11343169,-78
11343177,-82
11343185,-77
11343193,-38
11343200,-14
11343208,-81
11343216,-331
11343224,-281
11343232,848
11343239,2467
11343247,2772
11343255,1001
11343263,-1366
11343271,-2325
11343278,-1656
11343286,-713
11343294,-430
11343302,-446
11343310,-318
11343318,-197
11343325,-142
11343333,-93
11343341,-66
11343349,-46
11343357,-31
11343364,-22
11343372,-11
11343380,9
11343388,25
11343396,37
11343403,50
11343411,61
11343419,72
11343427,74
11343435,65
11343443,45
11343450,15
11343458,-19
11343466,-57
11343474,-99
11343482,-141
11343489,-179
11343497,-207
11343505,-218
11343513,-217
11343521,-201
11343528,-180
11343536,-155
11343544,-127
11343552,-97
11343560,-70
11343568,-53
11343575,-44
11343583,-39
11343591,-38
11343599,-35
11343607,-36
11343614,-46
11343622,-54
11343630,-59
11343638,-61
11343646,-62
11343653,-69
11343661,-78
11343669,-83
11343677,-81
11343685,-75
11343693,-72
11343700,-76
11343708,-89
11343716,-105
11343724,-103
11343732,-71
11343739,-15
11343747,31
11343755,30
11343763,-8
11343771,-52
11343778,-75
11343786,-88
11343794,-79
11343802,-72
11343810,-77
11343818,-61
11343825,-24
11343833,-24
11343841,-175
11343849,-409
11343857,48
11343864,1576
11343872,2871
11343880,2257
11343888,-54
11343896,-2012
11343903,-2187
11343911,-1217
11343919,-520
11343927,-451
11343935,-415
11343943,-254
11343950,-167
11343958,-118
11343966,-75
11343974,-54
11343982,-33
11343989,-23
11343997,-16
11344005,-5
11344013,12
11344021,25
11344028,38
11344036,49
11344044,61
11344052,65
11344060,61
11344068,48
11344075,28
11344083,2
11344091,-30
11344099,-67
11344107,-108
11344114,-151
11344122,-189
11344130,-215
11344138,-222
11344146,-207
11344153,-189
11344161,-168
11344169,-141
11344177,-112
11344185,-87
11344193,-69
11344200,-63
11344208,-51
11344216,-41
11344224,-31
11344232,-32
11344239,-40
11344247,-50
11344255,-55
11344263,-60
11344271,-69
11344278,-74
11344286,-75
11344294,-78
11344302,-80
11344310,-85
11344318,-81
11344325,-79
11344333,-76
11344341,-75
11344349,-71
11344357,-74
11344364,-89
11344372,-101
11344380,-87
11344388,-39
11344396,16
11344403,41
11344411,18
11344419,-25
11344427,-62
11344435,-85
11344443,-92
11344450,-80
11344458,-77
11344466,-77
11344474,-47
11344482,-15
11344489,-49
11344497,-270
11344505,-376
11344513,478
11344521,2119
11344528,2874
11344536,1538
11344544,-883
11344552,-2267
11344560,-1888
11344568,-879
11344575,-436
11344583,-445
11344591,-358
11344599,-218
11344607,-152
11344614,-98
11344622,-66
11344630,-45
11344638,-31
11344646,-21
11344653,-12
11344661,0
11344669,9
11344677,25
11344685,40
11344693,52
11344700,63
11344708,61
11344716,55
11344724,40
11344732,12
11344739,-18
11344747,-43
11344755,-74
11344763,-111
11344771,-155
11344778,-188
11344786,-209
11344794,-209
11344802,-201
11344810,-185
11344818,-167
11344825,-141
11344833,-111
11344841,-79
11344849,-61
11344857,-48
11344864,-41
11344872,-36
11344880,-38
11344888,-44
11344896,-52
11344903,-57
11344911,-59
11344919,-62
11344927,-70
11344935,-77
11344943,-78
11344950,-77
11344958,-75
11344966,-75
11344974,-73
11344982,-74
11344989,-76
11344997,-75
11345005,-74
11345013,-70
11345021,-64
11345028,-59
11345036,-63
11345044,-76
11345052,-94
11345060,-93
11345068,-62
11345075,-13
11345083,31
11345091,46
11345099,19
11345107,-27
11345114,-70
11345122,-96
11345130,-100
11345138,-85
11345146,-78
11345153,-77
11345161,-46
11345169,-18
11345177,-62
11345185,-291
11345193,-349
11345200,572
11345208,2177
11345216,2772
11345224,1319
11345232,-1034
11345239,-2244
11345247,-1770
11345255,-803
11345263,-423
11345271,-434
11345278,-335
11345286,-206
11345294,-145
11345302,-95
11345310,-67
11345318,-49
11345325,-29
11345333,-17
11345341,-7
11345349,1
11345357,13
11345364,26
11345372,36
11345380,50
11345388,56
11345396,59
11345403,51
11345411,35
11345419,10
11345427,-16
11345435,-42
11345443,-68
11345450,-101
11345458,-137
11345466,-172
11345474,-192
11345482,-194
11345489,-190
11345497,-179
11345505,-163
11345513,-137
11345521,-109
11345528,-81
11345536,-59
11345544,-50
11345552,-43
11345560,-42
11345568,-42
11345575,-44
11345583,-50
11345591,-57
11345599,-63
11345607,-69
11345614,-73
11345622,-76
11345630,-77
11345638,-80
11345646,-80
11345653,-79
11345661,-74
11345669,-75
11345677,-74
11345685,-73
11345693,-72
11345700,-69
11345708,-68
11345716,-65
11345724,-68
11345732,-82
11345739,-94
11345747,-76
11345755,-34
11345763,17
11345771,42
11345778,23
11345786,-20
11345794,-64
11345802,-92
11345810,-102
11345818,-91
11345825,-82
11345833,-83
11345841,-57
11345849,-19
11345857,-30
11345864,-215
11345872,-387
11345880,251
11345888,1797
11345896,2770
11345903,1783
11345911,-527
11345919,-2108
11345927,-1955
11345935,-972
11345943,-432
11345950,-424
11345958,-366
11345966,-220
11345974,-147
11345982,-98
11345989,-65
11345997,-50
11346005,-35
11346013,-25
11346021,-9
11346028,7
11346036,22
11346044,27
11346052,31
11346060,41
11346068,52
11346075,60
11346083,59
11346091,42
11346099,14
11346107,-18
11346114,-47
11346122,-72
11346130,-102
11346138,-141
11346146,-179
11346153,-207
11346161,-214
11346169,-208
11346177,-196
11346185,-176
11346193,-144
11346200,-113
11346208,-93
11346216,-77
11346224,-62
11346232,-41
11346239,-33
11346247,-39
11346255,-49
11346263,-54
11346271,-53
11346278,-57
11346286,-63
11346294,-74
11346302,-81
11346310,-83
11346318,-83
11346325,-82
11346333,-78
11346341,-75
11346349,-75
11346357,-69
11346364,-63
11346372,-62
11346380,-67
11346388,-81
11346396,-100
11346403,-98
11346411,-64
11346419,-8
11346427,27
11346435,24
11346443,-5
11346450,-39
11346458,-66
11346466,-89
11346474,-90
11346482,-81
11346489,-77
11346497,-54
11346505,-13
11346513,-12
11346521,-164
11346528,-332
11346536,217
11346544,1667
11346552,2673
11346560,1819
11346568,-417
11346575,-2065
11346583,-1999
11346591,-1018
11346599,-411
11346607,-368
11346614,-334
11346622,-206
11346630,-136
11346638,-93
11346646,-58
11346653,-44
11346661,-27
11346669,-15
11346677,-6
11346685,6
11346693,23
11346700,45
11346708,57
11346716,68
11346724,78
11346732,86
11346739,84
11346747,66
11346755,41
11346763,13
11346771,-24
11346778,-61
11346786,-106
11346794,-154
11346802,-204
11346810,-241
11346818,-257
11346825,-248
11346833,-223
11346841,-198
11346849,-167
11346857,-136
11346864,-98
11346872,-68
11346880,-51
11346888,-41
11346896,-33
11346903,-25
11346911,-22
11346919,-26
11346927,-39
11346935,-55
11346943,-68
11346950,-74
11346958,-74
11346966,-73
11346974,-77
11346982,-82
11346989,-81
11346997,-81
11347005,-76
11347013,-73
11347021,-76
11347028,-96
11347036,-100
11347044,-79
11347052,-29
11347060,19
11347068,22
11347075,-10
11347083,-45
11347091,-64
11347099,-77
11347107,-79
11347114,-78
11347122,-77
11347130,-55
11347138,-20
11347146,-4
11347153,-126
11347161,-351
11347169,-18
11347177,1332
11347185,2623
11347193,2224
11347200,119
11347208,-1845
11347216,-2158
11347224,-1252
11347232,-500
11347239,-380
11347247,-376
11347255,-238
11347263,-149
11347271,-103
11347278,-71
11347286,-56
11347294,-41
11347302,-20
11347310,-4
11347318,8
11347325,15
11347333,28
11347341,46
11347349,61
11347357,70
11347364,77
11347372,83
11347380,78
11347388,53
11347396,16
11347403,-17
11347411,-53
11347419,-100
11347427,-161
11347435,-215
11347443,-242
11347450,-250
11347458,-239
11347466,-222
11347474,-198
11347482,-167
11347489,-134
11347497,-102
11347505,-78
11347513,-61
11347521,-46
11347528,-33
11347536,-28
11347544,-31
11347552,-39
11347560,-44
11347568,-45
11347575,-53
11347583,-60
11347591,-69
11347599,-74
11347607,-78
11347614,-82
11347622,-80
11347630,-81
11347638,-80
11347646,-87
11347653,-98
11347661,-112
11347669,-102
11347677,-50
11347685,13
11347693,38
11347700,18
11347708,-27
11347716,-59
11347724,-75
11347732,-80
11347739,-75
11347747,-77
11347755,-69
11347763,-37
11347771,-14
11347778,-76
11347786,-319
11347794,-249
11347802,883
11347810,2453
11347818,2689
11347825,896
11347833,-1414
11347841,-2301
11347849,-1609
11347857,-683
11347864,-413
11347872,-428
11347880,-304
11347888,-186
11347896,-128
11347903,-83
11347911,-61
11347919,-46
11347927,-30
11347935,-18
11347943,-7
11347950,3
11347958,16
11347966,36
11347974,56
11347982,72
11347989,81
11347997,84
11348005,79
11348013,65
11348021,39
11348028,2
11348036,-41
11348044,-88
11348052,-140
11348060,-191
11348068,-231
11348075,-244
11348083,-236
11348091,-218
11348099,-197
11348107,-171
11348114,-141
11348122,-109
11348130,-80
11348138,-60
11348146,-51
11348153,-41
11348161,-32
11348169,-29
11348177,-32
11348185,-43
11348193,-54
11348200,-61
11348208,-67
11348216,-70
11348224,-70
11348232,-72
11348239,-77
11348247,-80
11348255,-80
11348263,-78
11348271,-82
11348278,-99
11348286,-111
11348294,-98
11348302,-49
11348310,11
11348318,38
11348325,16
11348333,-31
11348341,-68
11348349,-82
11348357,-82
11348364,-75
11348372,-78
11348380,-76
11348388,-41
11348396,-13
11348403,-67
11348411,-312
11348419,-309
11348427,750
11348435,2396
11348443,2832
11348450,1166
11348458,-1243
11348466,-2331
11348474,-1736
11348482,-767
11348489,-441
11348497,-455
11348505,-333
11348513,-198
11348521,-139
11348528,-90
11348536,-65
11348544,-49
11348552,-31
11348560,-15
11348568,3
11348575,14
11348583,21
11348591,31
11348599,46
11348607,65
11348614,78
11348622,84
11348630,78
11348638,57
11348646,28
11348653,-2
11348661,-38
11348669,-87
11348677,-144
11348685,-190
11348693,-220
11348700,-233
11348708,-229
11348716,-219
11348724,-195
11348732,-165
11348739,-135
11348747,-106
11348755,-83
11348763,-66
11348771,-55
11348778,-45
11348786,-40
11348794,-40
11348802,-39
11348810,-45
11348818,-50
11348825,-59
11348833,-63
11348841,-66
11348849,-70
11348857,-76
11348864,-79
11348872,-82
11348880,-80
11348888,-82
11348896,-94
11348903,-110
11348911,-110
11348919,-67
11348927,-4
11348935,36
11348943,30
11348950,-11
11348958,-52
11348966,-72
11348974,-87
11348982,-82
11348989,-75
11348997,-75
11349005,-49
11349013,-17
11349021,-32
11349028,-223
11349036,-408
11349044,258
11349052,1899
11349060,2956
11349068,1947
11349075,-494
11349083,-2204
11349091,-2080
11349099,-1056
11349107,-477
11349114,-454
11349122,-391
11349130,-238
11349138,-161
11349146,-109
11349153,-71
11349161,-50
11349169,-27
11349177,-17
11349185,-10
11349193,4
11349200,21
11349208,34
11349216,40
11349224,52
11349232,67
11349239,76
11349247,76
11349255,63
11349263,37
11349271,6
11349278,-30
11349286,-69
11349294,-116
11349302,-165
11349310,-209
11349318,-232
11349325,-231
11349333,-217
11349341,-200
11349349,-176
11349357,-150
11349364,-118
11349372,-88
11349380,-67
11349388,-55
11349396,-45
11349403,-37
11349411,-36
11349419,-36
11349427,-45
11349435,-49
11349443,-55
11349450,-62
11349458,-67
11349466,-68
11349474,-70
11349482,-74
11349489,-80
11349497,-77
11349505,-75
11349513,-77
11349521,-89
11349528,-102
11349536,-106
11349544,-88
11349552,-39
11349560,14
11349568,32
11349575,4
11349583,-42
11349591,-70
11349599,-80
11349607,-82
11349614,-78
11349622,-86
11349630,-74
11349638,-35
11349646,-11
11349653,-105
11349661,-361
11349669,-179
11349677,1106
11349685,2635
11349693,2607
11349700,599
11349708,-1650
11349716,-2312
11349724,-1489
11349732,-613
11349739,-416
11349747,-428
11349755,-296
11349763,-184
11349771,-125
11349778,-73
11349786,-51
11349794,-37
11349802,-26
11349810,-17
11349818,-1
11349825,16
11349833,33
11349841,44
11349849,55
11349857,61
11349864,68
11349872,66
11349880,62
11349888,44
11349896,14
11349903,-19
11349911,-55
11349919,-89
11349927,-132
11349935,-175
11349943,-206
11349950,-221
11349958,-220
11349966,-208
11349974,-191
11349982,-163
11349989,-130
11349997,-100
11350005,-76
11350013,-60
11350021,-45
11350028,-37
11350036,-33
11350044,-38
11350052,-45
11350060,-51
11350068,-54
11350075,-61
11350083,-67
11350091,-74
11350099,-76
11350107,-79
11350114,-81
11350122,-83
11350130,-76
11350138,-73
11350146,-72
11350153,-81
11350161,-98
11350169,-109
11350177,-91
11350185,-44
11350193,13
11350200,35
11350208,13
11350216,-30
11350224,-60
11350232,-77
11350239,-84
11350247,-74
11350255,-71
11350263,-67
11350271,-38
11350278,-11
11350286,-69
11350294,-310
11350302,-311
11350310,724
11350318,2343
11350325,2779
11350333,1142
11350341,-1231
11350349,-2314
11350357,-1728
11350364,-757
11350372,-419
11350380,-436
11350388,-327
11350396,-205
11350403,-139
11350411,-89
11350419,-55
11350427,-34
11350435,-19
11350443,-18
11350450,-10
11350458,2
11350466,17
11350474,31
11350482,45
11350489,56
11350497,66
11350505,67
11350513,61
11350521,46
11350528,13
11350536,-21
11350544,-52
11350552,-80
11350560,-115
11350568,-156
11350575,-192
11350583,-217
11350591,-231
11350599,-228
11350607,-207
11350614,-168
11350622,-137
11350630,-111
11350638,-88
11350646,-63
11350653,-42
11350661,-32
11350669,-28
11350677,-33
11350685,-44
11350693,-56
11350700,-58
11350708,-60
11350716,-61
11350724,-68
11350732,-74
11350739,-74
11350747,-75
11350755,-79
11350763,-83
11350771,-85
11350778,-85
11350786,-84
11350794,-93
11350802,-98
11350810,-77
11350818,-25
11350825,20
11350833,24
11350841,-9
11350849,-47
11350857,-68
11350864,-78
11350872,-81
11350880,-78
11350888,-80
11350896,-63
11350903,-18
11350911,5
11350919,-107
11350927,-343
11350935,-57
11350943,1268
11350950,2607
11350958,2300
11350966,226
11350974,-1805
11350982,-2203
11350989,-1314
11350997,-521
11351005,-376
11351013,-372
11351021,-243
11351028,-153
11351036,-105
11351044,-69
11351052,-49
11351060,-29
11351068,-10
11351075,-1
11351083,8
11351091,21
11351099,38
11351107,54
11351114,62
11351122,70
11351130,77
11351138,78
11351146,70
11351153,50
11351161,20
11351169,-11
11351177,-46
11351185,-92
11351193,-143
11351200,-194
11351208,-231
11351216,-252
11351224,-249
11351232,-232
11351239,-205
11351247,-170
11351255,-134
11351263,-100
11351271,-68
11351278,-48
11351286,-35
11351294,-28
11351302,-24
11351310,-25
11351318,-28
11351325,-37
11351333,-47
11351341,-55
11351349,-61
11351357,-70
11351364,-81
11351372,-88
11351380,-83
11351388,-77
11351396,-74
11351403,-79
11351411,-100
11351419,-114
11351427,-92
11351435,-38
11351443,15
11351450,24
11351458,-8
11351466,-53
11351474,-74
11351482,-79
11351489,-73
11351497,-62
11351505,-67
11351513,-59
11351521,-25
11351528,-7
11351536,-95
11351544,-320
11351552,-90
11351560,1167
11351568,2554
11351575,2388
11351583,401
11351591,-1698
11351599,-2226
11351607,-1390
11351614,-558
11351622,-382
11351630,-390
11351638,-260
11351646,-157
11351653,-106
11351661,-71
11351669,-60
11351677,-45
11351685,-28
11351693,-10
11351700,4
11351708,10
11351716,21
11351724,42
11351732,59
11351739,74
11351747,83
11351755,84
11351763,70
11351771,52
11351778,26
11351786,-4
11351794,-43
11351802,-99
11351810,-160
11351818,-211
11351825,-240
11351833,-245
11351841,-230
11351849,-214
11351857,-201
11351864,-173
11351872,-139
11351880,-106
11351888,-82
11351896,-61
11351903,-45
11351911,-31
11351919,-24
11351927,-23
11351935,-27
11351943,-37
11351950,-48
11351958,-59
11351966,-67
11351974,-73
11351982,-74
11351989,-72
11351997,-73
11352005,-78
11352013,-81
11352021,-77
11352028,-75
11352036,-74
11352044,-85
11352052,-105
11352060,-109
11352068,-72
11352075,-10
11352083,31
11352091,20
11352099,-17
11352107,-51
11352114,-66
11352122,-76
11352130,-77
11352138,-73
11352146,-72
11352153,-49
11352161,-14
11352169,-31
11352177,-215
11352185,-395
11352193,240
11352200,1821
11352208,2860
11352216,1903
11352224,-461
11352232,-2139
11352239,-2042
11352247,-1047
11352255,-465
11352263,-431
11352271,-370
11352278,-225
11352286,-159
11352294,-112
11352302,-73
11352310,-50
11352318,-31
11352325,-23
11352333,-16
11352341,-7
11352349,8
11352357,26
11352364,47
11352372,64
11352380,76
11352388,75
11352396,75
11352403,69
11352411,59
11352419,33
11352427,-6
11352435,-57
11352443,-109
11352450,-168
11352458,-209
11352466,-236
11352474,-241
11352482,-235
11352489,-217
11352497,-190
11352505,-161
11352513,-128
11352521,-97
11352528,-74
11352536,-56
11352544,-49
11352552,-38
11352560,-34
11352568,-35
11352575,-39
11352583,-50
11352591,-59
11352599,-71
11352607,-78
11352614,-78
11352622,-73
11352630,-76
11352638,-81
11352646,-84
11352653,-81
11352661,-76
11352669,-74
11352677,-75
11352685,-70
11352693,-62
11352700,-65
11352708,-77
11352716,-95
11352724,-102
11352732,-87
11352739,-39
11352747,10
11352755,34
11352763,18
11352771,-22
11352778,-57
11352786,-79
11352794,-85
11352802,-74
11352810,-73
11352818,-81
11352825,-50
11352833,-20
11352841,-58
11352849,-285
11352857,-370
11352864,530
11352872,2197
11352880,2916
11352888,1526
11352896,-914
11352903,-2280
11352911,-1883
11352919,-893
11352927,-466
11352935,-474
11352943,-369
11352950,-219
11352958,-150
11352966,-104
11352974,-72
11352982,-48
11352989,-27
11352997,-17
11353005,-11
11353013,-3
11353021,8
11353028,28
11353036,52
11353044,71
11353052,80
11353060,85
11353068,79
11353075,72
11353083,47
11353091,11
11353099,-28
11353107,-69
11353114,-114
11353122,-163
11353130,-208
11353138,-236
11353146,-240
11353153,-221
11353161,-198
11353169,-175
11353177,-152
11353185,-121
11353193,-91
11353200,-68
11353208,-59
11353216,-54
11353224,-46
11353232,-41
11353239,-40
11353247,-42
11353255,-48
11353263,-57
11353271,-64
11353278,-67
11353286,-64
11353294,-64
11353302,-68
11353310,-77
11353318,-82
11353325,-78
11353333,-76
11353341,-71
11353349,-72
11353357,-66
11353364,-64
11353372,-68
11353380,-68
11353388,-64
11353396,-57
11353403,-53
11353411,-58
11353419,-62
11353427,-76
11353435,-90
11353443,-86
11353450,-56
11353458,-4
11353466,32
11353474,35
11353482,1
11353489,-38
11353497,-64
11353505,-83
11353513,-85
11353521,-75
11353528,-79
11353536,-60
11353544,-24
11353552,-16
11353560,-153
11353568,-387
11353575,-12
11353583,1431
11353591,2780
11353599,2352
11353607,157
11353614,-1871
11353622,-2207
11353630,-1303
11353638,-567
11353646,-458
11353653,-432
11353661,-278
11353669,-181
11353677,-127
11353685,-79
11353693,-56
11353700,-42
11353708,-35
11353716,-23
11353724,-4
11353732,12
11353739,25
11353747,38
11353755,51
11353763,64
11353771,75
11353778,76
11353786,74
11353794,60
11353802,34
11353810,-1
11353818,-42
11353825,-81
11353833,-125
11353841,-171
11353849,-208
11353857,-226
11353864,-226
11353872,-211
11353880,-193
11353888,-166
11353896,-142
11353903,-111
11353911,-85
11353919,-63
11353927,-55
11353935,-49
11353943,-47
11353950,-43
11353958,-41
11353966,-43
11353974,-49
11353982,-56
11353989,-59
11353997,-62
11354005,-62
11354013,-65
11354021,-69
11354028,-72
11354036,-70
11354044,-69
11354052,-72
11354060,-73
11354068,-72
11354075,-66
11354083,-62
11354091,-60
11354099,-63
11354107,-64
11354114,-59
11354122,-55
11354130,-55
11354138,-65
11354146,-81
11354153,-90
11354161,-73
11354169,-31
11354177,17
11354185,44
11354193,29
11354200,-9
11354208,-50
11354216,-74
11354224,-87
11354232,-78
11354239,-74
11354247,-78
11354255,-50
11354263,-13
11354271,-33
11354278,-231
11354286,-382
11354294,324
11354302,1908
11354310,2841
11354318,1772
11354325,-580
11354333,-2145
11354341,-1963
11354349,-987
11354357,-462
11354364,-448
11354372,-378
11354380,-232
11354388,-160
11354396,-107
11354403,-65
11354411,-44
11354419,-26
11354427,-21
11354435,-12
11354443,1
11354450,14
11354458,28
11354466,43
11354474,59
11354482,70
11354489,73
11354497,72
11354505,65
11354513,43
11354521,7
11354528,-30
11354536,-63
11354544,-96
11354552,-138
11354560,-184
11354568,-222
11354575,-234
11354583,-232
11354591,-217
11354599,-197
11354607,-170
11354614,-133
11354622,-97
11354630,-76
11354638,-63
11354646,-57
11354653,-50
11354661,-48
11354669,-50
11354677,-52
11354685,-53
11354693,-53
11354700,-61
11354708,-69
11354716,-74
11354724,-70
11354732,-73
11354739,-77
11354747,-79
11354755,-80
11354763,-77
11354771,-80
11354778,-79
11354786,-77
11354794,-72
11354802,-66
11354810,-60
11354818,-59
11354825,-64
11354833,-65
11354841,-62
11354849,-58
11354857,-52
11354864,-51
11354872,-65
11354880,-82
11354888,-82
11354896,-53
11354903,-8
11354911,23
11354919,29
11354927,7
11354935,-34
11354943,-72
11354950,-91
11354958,-90
11354966,-78
11354974,-80
11354982,-80
11354989,-42
11354997,-11
11355005,-75
11355013,-305
11355021,-242
11355028,812
11355036,2307
11355044,2561
11355052,896
11355060,-1312
11355068,-2204
11355075,-1575
11355083,-675
11355091,-390
11355099,-403
11355107,-288
11355114,-173
11355122,-125
11355130,-89
11355138,-65
11355146,-40
11355153,-19
11355161,-14
11355169,-12
11355177,2
11355185,26
11355193,48
11355200,57
11355208,59
11355216,73
11355224,91
11355232,97
11355239,76
11355247,40
11355255,5
11355263,-31
11355271,-70
11355278,-111
11355286,-165
11355294,-214
11355302,-251
11355310,-257
11355318,-242
11355325,-218
11355333,-197
11355341,-172
11355349,-136
11355357,-96
11355364,-73
11355372,-63
11355380,-55
11355388,-45
11355396,-34
11355403,-31
11355411,-35
11355419,-43
11355427,-50
11355435,-57
11355443,-65
11355450,-75
11355458,-80
11355466,-83
11355474,-81
11355482,-81
11355489,-79
11355497,-74
11355505,-72
11355513,-73
11355521,-71
11355528,-64
11355536,-58
11355544,-56
11355552,-69
11355560,-85
11355568,-87
11355575,-65
11355583,-25
11355591,17
11355599,19
11355607,-8
11355614,-40
11355622,-60
11355630,-74
11355638,-75
11355646,-68
11355653,-73
11355661,-71
11355669,-33
11355677,-1
11355685,-71
11355693,-314
11355700,-188
11355708,966
11355716,2435
11355724,2501
11355732,665
11355739,-1511
11355747,-2226
11355755,-1488
11355763,-614
11355771,-379
11355778,-387
11355786,-265
11355794,-161
11355802,-122
11355810,-83
11355818,-63
11355825,-41
11355833,-22
11355841,-14
11355849,-5
11355857,10
11355864,34
11355872,47
11355880,54
11355888,64
11355896,85
11355903,105
11355911,108
11355919,88
11355927,56
11355935,15
11355943,-33
11355950,-91
11355958,-149
11355966,-204
11355974,-248
11355982,-271
11355989,-268
11355997,-243
11356005,-212
11356013,-183
11356021,-154
11356028,-127
11356036,-93
11356044,-70
11356052,-53
11356060,-42
11356068,-37
11356075,-37
11356083,-37
11356091,-37
11356099,-38
11356107,-46
11356114,-57
11356122,-66
11356130,-66
11356138,-68
11356146,-73
11356153,-79
11356161,-82
11356169,-80
11356177,-80
11356185,-78
11356193,-74
11356200,-72
11356208,-66
11356216,-64
11356224,-63
11356232,-63
11356239,-77
11356247,-96
11356255,-98
11356263,-67
11356271,-9
11356278,29
11356286,23
11356294,-13
11356302,-48
11356310,-68
11356318,-81
11356325,-79
11356333,-71
11356341,-71
11356349,-49
11356357,-21
11356364,-39
11356372,-227
11356380,-402
11356388,240
11356396,1834
11356403,2890
11356411,1948
11356419,-421
11356427,-2131
11356435,-2061
11356443,-1075
11356450,-492
11356458,-456
11356466,-394
11356474,-242
11356482,-167
11356489,-116
11356497,-79
11356505,-60
11356513,-38
11356521,-23
11356528,-15
11356536,-4
11356544,6
11356552,18
11356560,35
11356568,52
11356575,67
11356583,76
11356591,87
11356599,86
11356607,72
11356614,43
11356622,6
11356630,-42
11356638,-101
11356646,-164
11356653,-217
11356661,-247
11356669,-257
11356677,-252
11356685,-237
11356693,-209
11356700,-173
11356708,-138
11356716,-106
11356724,-84
11356732,-70
11356739,-61
11356747,-55
11356755,-46
11356763,-45
11356771,-44
11356778,-47
11356786,-51
11356794,-54
11356802,-58
11356810,-64
11356818,-67
11356825,-70
11356833,-74
11356841,-79
11356849,-80
11356857,-79
11356864,-74
11356872,-71
11356880,-71
11356888,-70
11356896,-78
11356903,-96
11356911,-107
11356919,-92
11356927,-42
11356935,16
11356943,38
11356950,14
11356958,-26
11356966,-61
11356974,-77
11356982,-83
11356989,-76
11356997,-75
11357005,-65
11357013,-32
11357021,-16
11357028,-89
11357036,-337
11357044,-292
11357052,830
11357060,2470
11357068,2830
11357075,1094
11357083,-1306
11357091,-2341
11357099,-1717
11357107,-762
11357114,-455
11357122,-467
11357130,-341
11357138,-208
11357146,-145
11357153,-90
11357161,-63
11357169,-44
11357177,-29
11357185,-16
11357193,-1
11357200,15
11357208,26
11357216,35
11357224,49
11357232,63
11357239,77
11357247,93
11357255,97
11357263,86
11357271,58
11357278,17
11357286,-25
11357294,-71
11357302,-130
11357310,-191
11357318,-241
11357325,-260
11357333,-258
11357341,-238
11357349,-215
11357357,-189
11357364,-157
11357372,-128
11357380,-98
11357388,-78
11357396,-61
11357403,-48
11357411,-41
11357419,-43
11357427,-43
11357435,-43
11357443,-42
11357450,-45
11357458,-51
11357466,-56
11357474,-60
11357482,-64
11357489,-65
11357497,-68
11357505,-71
11357513,-72
11357521,-71
11357528,-69
11357536,-70
11357544,-73
11357552,-84
11357560,-96
11357568,-98
11357575,-68
11357583,-9
11357591,39
11357599,40
11357607,3
11357614,-39
11357622,-65
11357630,-79
11357638,-77
11357646,-69
11357653,-72
11357661,-56
11357669,-25
11357677,-25
11357685,-173
11357693,-397
11357700,54
11357708,1564
11357716,2853
11357724,2259
11357732,-34
11357739,-2000
11357747,-2198
11357755,-1236
11357763,-527
11357771,-443
11357778,-415
11357786,-256
11357794,-174
11357802,-121
11357810,-79
11357818,-52
11357825,-32
11357833,-22
11357841,-15
11357849,-3
11357857,12
11357864,29
11357872,44
11357880,60
11357888,72
11357896,84
11357903,89
11357911,83
11357919,63
11357927,32
11357935,-4
11357943,-45
11357950,-95
11357958,-147
11357966,-200
11357974,-236
11357982,-257
11357989,-248
11357997,-229
11358005,-207
11358013,-181
11358021,-148
11358028,-109
11358036,-77
11358044,-56
11358052,-44
11358060,-41
11358068,-36
11358075,-39
11358083,-42
11358091,-46
11358099,-56
11358107,-59
11358114,-58
11358122,-60
11358130,-66
11358138,-75
11358146,-82
11358153,-82
11358161,-80
11358169,-74
11358177,-68
11358185,-66
11358193,-78
11358200,-104
11358208,-118
11358216,-93
11358224,-32
11358232,27
11358239,44
11358247,13
11358255,-36
11358263,-73
11358271,-87
11358278,-88
11358286,-76
11358294,-79
11358302,-70
11358310,-31
11358318,-7
11358325,-101
11358333,-353
11358341,-170
11358349,1099
11358357,2604
11358364,2570
11358372,584
11358380,-1635
11358388,-2285
11358396,-1474
11358403,-610
11358411,-416
11358419,-427
11358427,-292
11358435,-184
11358443,-129
11358450,-78
11358458,-50
11358466,-30
11358474,-15
11358482,-4
11358489,7
11358497,18
11358504,26
11358512,35
11358520,52
11358527,74
11358535,91
11358543,97
11358551,83
11358559,61
11358567,37
11358574,7
11358582,-33
11358590,-82
11358598,-130
11358606,-184
11358613,-224
11358621,-255
11358630,-258
11358638,-240
11358646,-212
11358653,-183
11358661,-151
11358669,-118
11358677,-86
11358685,-64
11358693,-49
11358700,-45
11358708,-39
11358716,-37
11358724,-41
11358732,-48
11358739,-50
11358747,-57
11358755,-60
11358763,-63
11358771,-68
11358778,-69
11358786,-67
11358794,-72
11358802,-77
11358810,-85
11358818,-92
11358825,-101
11358833,-104
11358841,-86
11358849,-40
11358857,11
11358864,25
11358872,-1
11358880,-44
11358888,-68
11358896,-77
11358903,-72
11358911,-61
11358919,-67
11358927,-71
11358935,-45
11358943,-11
11358950,-71
11358958,-294
11358966,-138
11358974,1043
11358982,2476
11358989,2465
11358997,575
11359005,-1591
11359013,-2256
11359021,-1481
11359028,-609
11359036,-384
11359044,-388
11359052,-264
11359060,-163
11359068,-119
11359075,-75
11359083,-48
11359091,-31
11359099,-20
11359107,-6
11359114,8
11359122,20
11359130,27
11359138,40
11359146,59
11359153,81
11359161,87
11359169,85
11359177,77
11359185,66
11359193,42
11359200,7
11359208,-35
11359216,-88
11359224,-143
11359232,-201
11359239,-242
11359247,-261
11359255,-257
11359263,-245
11359271,-216
11359278,-177
11359286,-142
11359294,-117
11359302,-90
11359310,-65
11359318,-44
11359325,-29
11359333,-23
11359341,-28
11359349,-32
11359357,-42
11359364,-44
11359372,-51
11359380,-58
11359388,-65
11359396,-69
11359403,-72
11359411,-72
11359419,-79
11359427,-84
11359435,-91
11359443,-104
11359450,-116
11359458,-99
11359466,-50
11359474,7
11359482,26
11359489,3
11359497,-34
11359505,-60
11359513,-77
11359521,-82
11359528,-75
11359536,-74
11359544,-64
11359552,-32
11359560,-13
11359568,-89
11359575,-334
11359583,-210
11359591,987
11359599,2538
11359607,2660
11359614,782
11359622,-1508
11359630,-2308
11359638,-1566
11359646,-661
11359653,-419
11359661,-434
11359669,-308
11359677,-189
11359685,-134
11359693,-83
11359700,-57
11359708,-40
11359716,-25
11359724,-17
11359732,3
11359739,16
11359747,28
11359755,40
11359763,54
11359771,68
11359778,77
11359786,86
11359794,82
11359802,66
11359810,41
11359818,6
11359825,-33
11359833,-85
11359841,-140
11359849,-194
11359857,-231
11359864,-243
11359872,-236
11359880,-224
11359888,-205
11359896,-179
11359903,-150
11359911,-116
11359919,-83
11359927,-60
11359935,-44
11359943,-36
11359950,-33
11359958,-35
11359966,-44
11359974,-48
11359982,-51
11359989,-57
11359997,-61
11360005,-64
11360013,-70
11360021,-75
11360028,-76
11360036,-75
11360044,-77
11360052,-91
11360060,-112
11360068,-119
11360075,-94
11360083,-42
11360091,10
11360099,30
11360107,13
11360114,-28
11360122,-64
11360130,-86
11360138,-90
11360146,-78
11360153,-74
11360161,-73
11360169,-43
11360177,-14
11360185,-58
11360193,-292
11360200,-343
11360208,621
11360216,2301
11360224,2925
11360232,1413
11360239,-1058
11360247,-2346
11360255,-1872
11360263,-865
11360271,-455
11360278,-463
11360286,-353
11360294,-214
11360302,-154
11360310,-102
11360318,-67
11360325,-43
11360333,-26
11360341,-19
11360349,-8
11360357,5
11360364,17
11360372,30
11360380,45
11360388,58
11360396,77
11360403,89
11360411,90
11360419,73
11360427,43
11360435,3
11360443,-38
11360450,-81
11360458,-127
11360466,-181
11360474,-220
11360482,-242
11360489,-244
11360497,-231
11360505,-209
11360513,-181
11360521,-152
11360528,-124
11360536,-96
11360544,-70
11360552,-53
11360560,-43
11360568,-38
11360575,-37
11360583,-39
11360591,-44
11360599,-49
11360607,-51
11360614,-55
11360622,-62
11360630,-73
11360638,-76
11360646,-77
11360653,-74
11360661,-78
11360669,-80
11360677,-89
11360685,-104
11360693,-109
11360700,-82
11360708,-30
11360716,17
11360724,30
11360732,2
11360739,-41
11360747,-72
11360755,-87
11360763,-87
11360771,-76
11360778,-77
11360786,-71
11360794,-32
11360802,-9
11360810,-96
11360818,-353
11360825,-234
11360833,996
11360841,2606
11360849,2748
11360857,830
11360864,-1523
11360872,-2360
11360880,-1611
11360888,-690
11360896,-441
11360903,-450
11360911,-311
11360919,-193
11360927,-136
11360935,-83
11360943,-57
11360950,-39
11360958,-24
11360966,-16
11360974,-3
11360982,8
11360989,19
11360997,36
11361005,57
11361013,71
11361021,77
11361028,85
11361036,83
11361044,64
11361052,28
11361060,-7
11361068,-39
11361075,-81
11361083,-131
11361091,-188
11361099,-226
11361107,-241
11361114,-234
11361122,-223
11361130,-204
11361138,-174
11361146,-142
11361153,-110
11361161,-83
11361169,-61
11361177,-47
11361185,-33
11361193,-29
11361200,-29
11361208,-37
11361216,-45
11361224,-48
11361232,-52
11361239,-60
11361247,-67
11361255,-76
11361263,-79
11361271,-78
11361278,-73
11361286,-72
11361294,-71
11361302,-76
11361310,-79
11361318,-88
11361325,-99
11361333,-94
11361341,-61
11361349,-6
11361357,30
11361364,26
11361372,-3
11361380,-32
11361388,-61
11361396,-93
11361403,-115
11361411,-106
11361419,-89
11361427,-63
11361435,-21
11361443,16
11361450,-48
11361458,-319
11361466,-242
11361474,945
11361482,2529
11361489,2669
11361497,764
11361505,-1544
11361513,-2318
11361521,-1538
11361528,-625
11361536,-395
11361544,-403
11361552,-272
11361560,-184
11361568,-168
11361575,-131
11361583,-74
11361591,-23
11361599,-9
11361607,1
11361614,27
11361622,43
11361629,25
11361637,13
11361645,26
11361652,40
11361660,42
11361668,32
11361676,50
11361684,80
11361692,83
11361699,60
11361707,28
11361715,-33
11361723,-151
11361731,-257
11361738,-274
11361746,-258
11361755,-274
11361763,-287
11361771,-231
11361778,-135
11361786,-73
11361794,-78
11361802,-84
11361810,-40
11361818,-18
11361825,-61
11361833,-81
11361841,-39
11361849,4
11361857,-10
11361864,-87
11361872,-157
11361880,-151
11361888,-90
11361896,-48
11361903,-37
11361911,-46
11361919,-73
11361927,-84
11361935,-77
11361943,-91
11361950,-117
11361958,-115
11361966,-73
11361974,-26
11361982,-3
11361989,-11
11361997,-24
11362005,-39
11362013,-56
11362021,-57
11362028,-63
11362036,-79
11362044,-94
11362052,-96
11362060,-62
11362068,-15
11362075,8
11362083,-111
11362091,-321
11362099,83
11362107,1495
11362114,2704
11362122,2090
11362130,-160
11362138,-2047
11362146,-2166
11362153,-1160
11362161,-442
11362169,-368
11362177,-354
11362185,-217
11362193,-148
11362200,-122
11362208,-102
11362216,-89
11362224,-58
11362232,-5
11362239,63
11362247,85
11362254,27
11362262,-31
11362270,-17
11362277,42
11362285,78
11362293,107
11362301,150
11362309,167
11362317,87
11362324,-28
11362332,-67
11362340,-58
11362348,-100
11362356,-194
11362363,-259
11362371,-257
11362380,-240
11362388,-238
11362396,-232
11362403,-211
11362411,-193
11362419,-168
11362427,-120
11362435,-72
11362443,-43
11362450,-18
11362458,0
11362466,-6
11362474,-44
11362482,-103
11362489,-122
11362497,-87
11362505,-40
11362513,-10
11362521,-18
11362528,-54
11362536,-78
11362544,-79
11362552,-83
11362560,-116
11362568,-147
11362575,-139
11362583,-84
11362591,-16
11362599,27
11362607,29
11362614,0
11362622,-54
11362630,-101
11362638,-109
11362646,-87
11362653,-46
11362661,-28
11362669,-31
11362677,-23
11362685,-19
11362693,-87
11362700,-296
11362708,-192
11362716,921
11362724,2430
11362732,2626
11362739,845
11362747,-1438
11362755,-2307
11362763,-1602
11362771,-670
11362778,-391
11362786,-422
11362794,-305
11362802,-166
11362810,-78
11362818,-24
11362825,-10
11362833,-4
11362841,1
11362849,-9
11362857,-29
11362864,-44
11362872,-18
11362880,42
11362888,92
11362896,106
11362903,93
11362911,78
11362919,72
11362927,50
11362935,18
11362943,0
11362950,-6
11362958,-48
11362966,-136
11362974,-229
11362982,-287
11362989,-303
11362997,-288
11363005,-238
11363013,-153
11363021,-91
11363028,-82
11363036,-91
11363044,-82
11363052,-69
11363060,-78
11363068,-90
11363075,-62
11363083,-3
11363091,24
11363099,-8
11363107,-61
11363114,-89
11363122,-86
11363130,-67
11363138,-47
11363146,-37
11363153,-46
11363161,-70
11363169,-95
11363177,-127
11363185,-141
11363193,-118
11363200,-56
11363208,15
11363216,51
11363224,26
11363232,-37
11363239,-85
11363247,-89
11363255,-65
11363263,-45
11363271,-61
11363278,-70
11363286,-29
11363294,2
11363302,-46
11363310,-251
11363318,-311
11363325,558
11363333,2154
11363341,2819
11363349,1423
11363357,-985
11363364,-2304
11363372,-1861
11363380,-837
11363388,-412
11363396,-442
11363403,-342
11363411,-181
11363419,-118
11363427,-88
11363435,-68
11363443,-45
11363450,-10
11363458,-3
11363466,-19
11363474,-32
11363482,-15
11363489,20
11363497,72
11363505,125
11363513,146
11363521,118
11363528,77
11363536,68
11363544,72
11363552,37
11363560,-39
11363568,-104
11363575,-141
11363583,-177
11363591,-221
11363599,-259
11363607,-255
11363614,-217
11363622,-189
11363630,-193
11363638,-199
11363646,-166
11363653,-98
11363661,-37
11363669,-20
11363677,-20
11363685,-22
11363693,-25
11363700,-42
11363708,-68
11363716,-89
11363724,-74
11363732,-40
11363739,-27
11363747,-59
11363755,-86
11363763,-62
11363771,-47
11363778,-99
11363786,-173
11363794,-171
11363802,-85
11363810,13
11363818,47
11363825,30
11363833,4
11363841,-42
11363849,-106
11363857,-149
11363864,-117
11363872,-31
11363880,15
11363888,0
11363896,-22
11363903,-29
11363911,-87
11363919,-310
11363927,-296
11363935,725
11363943,2322
11363950,2764
11363958,1164
11363966,-1185
11363974,-2275
11363982,-1721
11363989,-787
11363997,-477
11364005,-488
11364013,-324
11364021,-159
11364028,-110
11364036,-79
11364044,-49
11364052,-17
11364060,-6
11364068,-29
11364075,-48
11364083,-46
11364091,-18
11364099,32
11364107,74
11364114,85
11364122,90
11364130,111
11364138,125
11364146,104
11364153,62
11364161,12
11364169,-36
11364177,-85
11364185,-130
11364193,-182
11364200,-227
11364208,-254
11364216,-249
11364224,-220
11364232,-194
11364239,-189
11364247,-188
11364255,-159
11364263,-102
11364271,-36
11364278,1
11364286,-14
11364294,-53
11364302,-72
11364310,-56
11364318,-40
11364325,-54
11364333,-73
11364341,-65
11364349,-30
11364357,-12
11364364,-34
11364372,-70
11364380,-79
11364388,-89
11364396,-125
11364403,-153
11364411,-148
11364419,-111
11364427,-54
11364435,8
11364443,55
11364450,69
11364458,24
11364466,-55
11364474,-113
11364482,-127
11364489,-111
11364497,-73
11364505,-37
11364513,-15
11364521,5
11364528,-7
11364536,-129
11364544,-380
11364552,-117
11364560,1241
11364568,2696
11364575,2484
11364583,382
11364591,-1774
11364599,-2272
11364607,-1396
11364614,-574
11364622,-423
11364630,-428
11364638,-297
11364646,-189
11364653,-106
11364661,-29
11364669,-7
11364677,-25
11364685,-50
11364693,-56
11364700,-36
11364708,-7
11364716,20
11364724,62
11364732,98
11364739,111
11364747,93
11364755,65
11364763,64
11364771,73
11364778,57
11364786,12
11364794,-28
11364802,-57
11364810,-107
11364818,-181
11364825,-251
11364833,-280
11364841,-255
11364849,-223
11364857,-207
11364864,-197
11364872,-165
11364880,-126
11364888,-96
11364896,-77
11364903,-52
11364911,-22
11364919,-14
11364927,-30
11364935,-45
11364943,-53
11364950,-62
11364958,-75
11364966,-75
11364974,-47
11364982,-28
11364989,-64
11364997,-119
11365005,-121
11365013,-66
11365021,-22
11365028,-43
11365036,-98
11365044,-122
11365052,-88
11365060,-40
11365068,-4
11365075,8
11365083,-8
11365091,-36
11365099,-56
11365107,-55
11365114,-51
11365122,-71
11365130,-109
11365138,-109
11365146,-42
11365153,18
11365161,-83
11365169,-351
11365177,-68
11365185,1300
11365193,2666
11365200,2323
11365208,208
11365216,-1813
11365224,-2178
11365232,-1288
11365239,-526
11365247,-394
11365255,-380
11365263,-245
11365271,-171
11365278,-133
11365286,-74
11365294,-20
11365302,9
11365310,4
11365318,-7
11365325,2
11365333,14
11365341,26
11365349,28
11365357,48
11365364,84
11365372,108
11365380,113
11365388,100
11365396,70
11365403,48
11365411,34
11365419,-7
11365427,-93
11365435,-186
11365443,-249
11365450,-271
11365458,-267
11365466,-259
11365474,-244
11365482,-222
11365489,-199
11365497,-160
11365505,-90
11365513,-45
11365521,-54
11365528,-65
11365536,-48
11365544,-33
11365552,-35
11365560,-34
11365568,-22
11365575,-16
11365583,-30
11365591,-47
11365599,-45
11365607,-59
11365614,-103
11365622,-121
11365630,-92
11365638,-80
11365646,-112
11365653,-126
11365661,-82
11365669,-7
11365677,23
11365685,4
11365693,-23
11365700,-39
11365708,-58
11365716,-82
11365724,-82
11365732,-62
11365739,-48
11365747,-14
11365755,15
11365763,-16
11365771,-201
11365778,-418
11365786,107
11365794,1637
11365802,2814
11365810,2078
11365818,-218
11365825,-2054
11365833,-2138
11365841,-1165
11365849,-494
11365857,-421
11365864,-390
11365872,-265
11365880,-187
11365888,-86
11365896,2
11365903,25
11365911,22
11365919,-7
11365927,-32
11365935,-28
11365943,-23
11365950,-8
11365958,25
11365966,85
11365974,140
11365982,163
11365989,126
11365997,79
11366005,71
11366013,69
11366021,17
11366028,-70
11366036,-169
11366044,-246
11366052,-297
11366060,-312
11366068,-281
11366075,-220
11366083,-184
11366091,-184
11366099,-175
11366107,-130
11366114,-77
11366122,-60
11366130,-59
11366138,-53
11366146,-32
11366153,-21
11366161,-31
11366169,-44
11366177,-47
11366185,-46
11366193,-53
11366200,-66
11366208,-69
11366216,-56
11366224,-51
11366232,-68
11366239,-99
11366247,-120
11366255,-123
11366263,-98
11366271,-48
11366278,6
11366286,31
11366294,7
11366302,-37
11366310,-79
11366318,-99
11366325,-83
11366333,-53
11366341,-46
11366349,-38
11366357,-26
11366364,-41
11366372,-182
11366380,-317
11366388,280
11366396,1735
11366403,2686
11366411,1764
11366419,-481
11366427,-2078
11366435,-1974
11366443,-1001
11366450,-412
11366458,-377
11366466,-339
11366474,-213
11366482,-140
11366489,-89
11366497,-54
11366505,-39
11366513,-30
11366521,-31
11366528,-23
11366536,-8
11366544,14
11366552,36
11366560,51
11366568,63
11366575,75
11366583,90
11366591,96
11366599,88
11366607,66
11366614,33
11366622,-12
11366630,-72
11366638,-141
11366646,-203
11366653,-239
11366661,-251
11366669,-241
11366677,-223
11366685,-194
11366693,-166
11366700,-143
11366708,-121
11366716,-96
11366724,-69
11366732,-50
11366739,-37
11366747,-31
11366755,-34
11366763,-37
11366771,-42
11366778,-38
11366786,-40
11366794,-49
11366802,-58
11366810,-66
11366818,-73
11366825,-78
11366833,-79
11366841,-82
11366849,-90
11366857,-106
11366864,-117
11366872,-108
11366880,-69
11366888,-16
11366896,14
11366903,4
11366911,-28
11366919,-61
11366927,-77
11366935,-84
11366943,-76
11366950,-72
11366958,-77
11366966,-54
11366974,-24
