Timestamp,Count
5296820,0
5296828,0
5296836,-1
5296843,-2
5296851,-3
5296859,-4
5296867,-9
5296875,-8
5296883,-9
5296890,-15
5296898,-9
5296906,-24
5296914,-12
5296922,1
5296929,-82
5296937,-51
5296945,110
5296953,29
5296961,-420
5296968,-883
5296976,-909
5296984,-567
5296992,-293
5297000,-310
5297008,-374
5297015,-262
5297023,-169
5297031,-165
5297039,-126
5297047,-98
5297054,-77
5297062,-53
5297070,-44
5297078,-39
5297086,-32
5297093,-34
5297101,-35
5297109,-36
5297117,-36
5297125,-32
5297133,-37
5297140,-40
5297148,-40
5297156,-38
5297164,-32
5297172,-28
5297179,-32
5297187,-40
5297195,-44
5297203,-39
5297211,-36
5297218,-41
5297226,-45
5297234,-44
5297242,-37
5297250,-34
5297258,-37
5297265,-31
5297273,-24
5297281,-28
5297289,-34
5297297,-37
5297304,-31
5297312,-29
5297320,-40
5297328,-54
5297336,-68
5297343,-60
5297351,-43
5297359,-23
5297367,9
5297375,37
5297383,39
5297390,8
5297398,-40
5297406,-68
5297414,-72
5297422,-65
5297429,-54
5297437,-53
5297445,-61
5297453,-36
5297461,12
5297468,-7
5297476,-259
5297484,-406
5297492,472
5297500,2203
5297508,3018
5297515,1673
5297523,-774
5297531,-2165
5297539,-1803
5297547,-867
5297554,-494
5297562,-521
5297570,-415
5297578,-263
5297586,-191
5297593,-134
5297601,-97
5297609,-74
5297617,-56
5297625,-46
5297633,-34
5297640,-23
5297648,-15
5297656,-8
5297664,2
5297672,11
5297679,21
5297687,37
5297695,63
5297703,83
5297711,101
5297718,116
5297726,143
5297734,163
5297742,175
5297750,170
5297758,157
5297765,131
5297773,70
5297781,-45
5297789,-191
5297797,-325
5297804,-399
5297812,-419
5297820,-400
5297828,-359
5297836,-300
5297843,-233
5297851,-180
5297859,-143
5297867,-121
5297875,-103
5297883,-85
5297890,-71
5297898,-59
5297906,-52
5297914,-47
5297922,-49
5297929,-54
5297937,-55
5297945,-47
5297953,-43
5297961,-42
5297968,-44
5297976,-46
5297984,-48
5297992,-44
5298000,-49
5298008,-53
5298015,-54
5298023,-46
5298031,-44
5298039,-47
5298047,-51
5298054,-48
5298062,-46
5298070,-43
5298078,-42
5298086,-39
5298093,-39
5298101,-40
5298109,-34
5298117,-30
5298125,-34
5298133,-34
5298140,-38
5298148,-45
5298156,-52
5298164,-52
5298172,-43
5298179,-37
5298187,-40
5298195,-50
5298203,-59
5298211,-64
5298218,-56
5298226,-28
5298234,11
5298242,34
5298250,31
5298258,0
5298265,-43
5298273,-68
5298281,-76
5298289,-72
5298297,-58
5298304,-57
5298312,-66
5298320,-46
5298328,5
5298336,-21
5298343,-284
5298351,-390
5298359,584
5298367,2313
5298375,2966
5298383,1456
5298390,-968
5298398,-2191
5298406,-1715
5298414,-799
5298422,-492
5298429,-520
5298437,-395
5298445,-250
5298453,-183
5298461,-128
5298468,-93
5298476,-69
5298484,-55
5298492,-48
5298500,-41
5298508,-32
5298515,-23
5298523,-14
5298531,-4
5298539,12
5298547,25
5298554,37
5298562,51
5298570,68
5298578,87
5298586,104
5298593,122
5298601,140
5298609,160
5298617,157
5298625,143
5298633,122
5298640,65
5298648,-33
5298656,-168
5298664,-299
5298672,-381
5298679,-408
5298687,-391
5298695,-345
5298703,-294
5298711,-242
5298718,-194
5298726,-145
5298734,-117
5298742,-101
5298750,-91
5298758,-79
5298765,-72
5298773,-65
5298781,-63
5298789,-58
5298797,-57
5298804,-60
5298812,-61
5298820,-58
5298828,-51
5298836,-53
5298843,-57
5298851,-63
5298859,-61
5298867,-58
5298875,-54
5298883,-55
5298890,-56
5298898,-60
5298906,-60
5298914,-58
5298922,-58
5298929,-55
5298937,-45
5298945,-43
5298953,-44
5298961,-48
5298968,-47
5298976,-47
5298984,-49
5298992,-48
5299000,-41
5299008,-36
5299015,-39
5299023,-48
5299031,-50
5299039,-47
5299047,-37
5299054,-44
5299062,-64
5299070,-85
5299078,-81
5299086,-53
5299093,-11
5299101,22
5299109,33
5299117,10
5299125,-34
5299133,-69
5299140,-76
5299148,-74
5299156,-69
5299164,-75
5299172,-88
5299179,-67
5299187,-13
5299195,4
5299203,-191
5299211,-437
5299218,155
5299226,1793
5299234,2957
5299242,2072
5299250,-299
5299258,-2023
5299265,-1968
5299273,-1033
5299281,-524
5299289,-529
5299297,-452
5299304,-286
5299312,-211
5299320,-164
5299328,-115
5299336,-77
5299343,-47
5299351,-39
5299359,-45
5299367,-42
5299375,-24
5299383,-3
5299390,8
5299398,5
5299406,7
5299414,17
5299422,37
5299429,53
5299437,71
5299445,93
5299453,110
5299461,123
5299468,133
5299476,140
5299484,139
5299492,115
5299500,52
5299508,-41
5299515,-159
5299523,-284
5299531,-382
5299539,-432
5299547,-421
5299554,-374
5299562,-314
5299570,-252
5299578,-200
5299586,-159
5299593,-130
5299601,-109
5299609,-90
5299617,-68
5299625,-57
5299633,-58
5299640,-64
5299648,-64
5299656,-59
5299664,-50
5299672,-49
5299679,-57
5299687,-58
5299695,-57
5299703,-50
5299711,-43
5299718,-44
5299726,-54
5299734,-63
5299742,-67
5299750,-62
5299758,-57
5299765,-57
5299773,-68
5299781,-73
5299789,-61
5299797,-42
5299804,-29
5299812,-32
5299820,-51
5299828,-66
5299836,-70
5299843,-69
5299851,-59
5299859,-48
5299867,-41
5299875,-53
5299883,-71
5299890,-78
5299898,-62
5299906,-28
5299914,-2
5299922,17
5299929,21
5299937,4
5299945,-35
5299953,-76
5299961,-96
5299968,-92
5299976,-73
5299984,-61
5299992,-72
5300000,-65
5300008,-13
5300015,17
5300023,-171
5300031,-400
5300039,206
5300047,1786
5300054,2800
5300062,1806
5300070,-522
5300078,-2073
5300086,-1865
5300093,-887
5300101,-404
5300109,-430
5300117,-387
5300125,-258
5300133,-195
5300140,-139
5300148,-89
5300156,-61
5300164,-51
5300172,-48
5300179,-30
5300187,-8
5300195,2
5300203,-3
5300211,-7
5300218,5
5300226,28
5300234,46
5300242,49
5300250,60
5300258,75
5300265,95
5300273,126
5300281,154
5300289,154
5300297,129
5300304,100
5300312,78
5300320,24
5300328,-85
5300336,-238
5300343,-368
5300351,-432
5300359,-435
5300367,-401
5300375,-354
5300383,-301
5300390,-244
5300398,-195
5300406,-148
5300414,-115
5300422,-92
5300429,-69
5300437,-48
5300445,-42
5300453,-42
5300461,-46
5300468,-48
5300476,-45
5300484,-37
5300492,-34
5300500,-34
5300508,-41
5300515,-52
5300523,-58
5300531,-62
5300539,-61
5300547,-54
5300554,-50
5300562,-51
5300570,-48
5300578,-47
5300586,-48
5300593,-55
5300601,-59
5300609,-53
5300617,-41
5300625,-36
5300633,-34
5300640,-49
5300648,-66
5300656,-71
5300664,-60
5300672,-45
5300679,-21
5300687,15
5300695,42
5300703,29
5300711,-19
5300718,-72
5300726,-90
5300734,-79
5300742,-72
5300750,-68
5300758,-73
5300765,-67
5300773,-14
5300781,40
5300789,-66
5300797,-381
5300804,-196
5300812,1143
5300820,2654
5300828,2514
5300836,460
5300843,-1657
5300851,-2128
5300859,-1286
5300867,-541
5300875,-438
5300883,-449
5300890,-296
5300898,-193
5300906,-153
5300914,-115
5300922,-87
5300929,-56
5300937,-41
5300945,-34
5300953,-29
5300961,-21
5300968,-7
5300976,1
5300984,-1
5300992,7
5301000,25
5301008,50
5301015,68
5301023,85
5301031,98
5301039,113
5301047,122
5301054,130
5301062,135
5301070,130
5301078,92
5301086,16
5301093,-105
5301101,-248
5301109,-372
5301117,-444
5301125,-450
5301133,-406
5301140,-345
5301148,-291
5301156,-250
5301164,-217
5301172,-173
5301179,-123
5301187,-89
5301195,-72
5301203,-59
5301211,-49
5301218,-39
5301226,-35
5301234,-35
5301242,-41
5301250,-47
5301258,-45
5301265,-44
5301273,-39
5301281,-49
5301289,-65
5301297,-62
5301304,-53
5301312,-53
5301320,-61
5301328,-71
5301336,-80
5301343,-75
5301351,-65
5301359,-65
5301367,-76
5301375,-89
5301383,-83
5301390,-49
5301398,-9
5301406,23
5301414,29
5301422,11
5301429,-30
5301437,-83
5301445,-108
5301453,-97
5301461,-66
5301468,-48
5301476,-64
5301484,-75
5301492,-30
5301500,27
5301508,-95
5301515,-381
5301523,-58
5301531,1367
5301539,2707
5301547,2278
5301554,133
5301562,-1788
5301570,-2025
5301578,-1145
5301586,-495
5301593,-438
5301601,-427
5301609,-287
5301617,-201
5301625,-145
5301633,-97
5301640,-70
5301648,-49
5301656,-41
5301664,-40
5301672,-39
5301679,-28
5301687,-16
5301695,-1
5301703,6
5301711,16
5301718,27
5301726,45
5301734,63
5301742,85
5301750,108
5301758,120
5301765,126
5301773,128
5301781,126
5301789,112
5301797,73
5301804,-7
5301812,-127
5301820,-260
5301828,-366
5301836,-414
5301843,-401
5301851,-356
5301859,-305
5301867,-259
5301875,-219
5301883,-180
5301890,-136
5301898,-95
5301906,-70
5301914,-57
5301922,-56
5301929,-53
5301937,-42
5301945,-37
5301953,-36
5301961,-37
5301968,-38
5301976,-37
5301984,-32
5301992,-28
5302000,-39
5302008,-54
5302015,-59
5302023,-52
5302031,-53
5302039,-62
5302047,-68
5302054,-57
5302062,-49
5302070,-54
5302078,-61
5302086,-61
5302093,-63
5302101,-69
5302109,-66
5302117,-41
5302125,4
5302133,30
5302140,31
5302148,1
5302156,-43
5302164,-72
5302172,-76
5302179,-77
5302187,-66
5302195,-59
5302203,-66
5302211,-55
5302218,-17
5302226,-5
5302234,-202
5302242,-420
5302250,253
5302258,1912
5302265,2952
5302273,1912
5302281,-482
5302289,-2074
5302297,-1887
5302304,-939
5302312,-486
5302320,-510
5302328,-434
5302336,-278
5302343,-208
5302351,-148
5302359,-97
5302367,-67
5302375,-53
5302383,-54
5302390,-48
5302398,-31
5302406,-16
5302414,-12
5302422,-16
5302429,-9
5302437,10
5302445,36
5302453,57
5302461,70
5302468,87
5302476,107
5302484,127
5302492,134
5302500,130
5302508,130
5302515,124
5302523,90
5302531,-4
5302539,-134
5302547,-269
5302554,-363
5302562,-407
5302570,-397
5302578,-356
5302586,-298
5302593,-242
5302601,-201
5302609,-166
5302617,-129
5302625,-94
5302633,-72
5302640,-65
5302648,-61
5302656,-53
5302664,-46
5302672,-41
5302679,-41
5302687,-36
5302695,-38
5302703,-47
5302711,-53
5302718,-50
5302726,-44
5302734,-50
5302742,-65
5302750,-70
5302758,-71
5302765,-69
5302773,-69
5302781,-58
5302789,-52
5302797,-50
5302804,-51
5302812,-50
5302820,-62
5302828,-78
5302836,-96
5302843,-81
5302851,-42
5302859,3
5302867,30
5302875,28
5302883,-1
5302890,-36
5302898,-66
5302906,-81
5302914,-84
5302922,-71
5302929,-59
5302937,-64
5302945,-47
5302953,-9
5302961,-8
5302968,-237
5302976,-440
5302984,323
5302992,2066
5303000,3053
5303008,1871
5303015,-620
5303023,-2183
5303031,-1920
5303039,-935
5303047,-492
5303054,-526
5303062,-447
5303070,-289
5303078,-204
5303086,-128
5303093,-81
5303101,-63
5303109,-54
5303117,-52
5303125,-37
5303133,-21
5303140,-10
5303148,-2
5303156,2
5303164,11
5303172,25
5303179,41
5303187,54
5303195,71
5303203,90
5303211,115
5303218,135
5303226,154
5303234,155
5303242,144
5303250,124
5303258,70
5303265,-32
5303273,-169
5303281,-307
5303289,-396
5303297,-423
5303304,-402
5303312,-359
5303320,-309
5303328,-255
5303336,-206
5303343,-164
5303351,-132
5303359,-105
5303367,-86
5303375,-67
5303383,-57
5303390,-48
5303398,-43
5303406,-43
5303414,-40
5303422,-37
5303429,-37
5303437,-41
5303445,-43
5303453,-42
5303461,-44
5303468,-49
5303476,-51
5303484,-49
5303492,-50
5303500,-53
5303508,-57
5303515,-59
5303523,-58
5303531,-57
5303539,-54
5303547,-48
5303554,-48
5303562,-53
5303570,-50
5303578,-46
5303586,-45
5303593,-42
5303601,-40
5303609,-40
5303617,-46
5303625,-48
5303633,-47
5303640,-48
5303648,-60
5303656,-76
5303664,-72
5303672,-48
5303679,-3
5303687,33
5303695,43
5303703,16
5303711,-27
5303718,-64
5303726,-77
5303734,-85
5303742,-79
5303750,-65
5303758,-64
5303765,-47
5303773,-11
5303781,9
5303789,-162
5303797,-461
5303804,-22
5303812,1592
5303820,2990
5303828,2397
5303836,43
5303843,-1939
5303851,-2110
5303859,-1173
5303867,-551
5303875,-523
5303883,-483
5303890,-311
5303898,-220
5303906,-159
5303914,-105
5303922,-77
5303929,-62
5303937,-50
5303945,-42
5303953,-34
5303961,-30
5303968,-20
5303976,-12
5303984,4
5303992,19
5304000,39
5304008,58
5304015,70
5304023,80
5304031,96
5304039,118
5304047,143
5304054,155
5304062,155
5304070,142
5304078,108
5304086,45
5304093,-61
5304101,-201
5304109,-331
5304117,-411
5304125,-424
5304133,-393
5304140,-344
5304148,-294
5304156,-240
5304164,-189
5304172,-146
5304179,-119
5304187,-101
5304195,-86
5304203,-69
5304211,-61
5304218,-60
5304226,-58
5304234,-48
5304242,-40
5304250,-42
5304258,-52
5304265,-52
5304273,-47
5304281,-47
5304289,-53
5304297,-57
5304304,-51
5304312,-49
5304320,-56
5304328,-64
5304336,-66
5304343,-61
5304351,-57
5304359,-60
5304367,-62
5304375,-63
5304383,-59
5304390,-56
5304398,-56
5304406,-48
5304414,-45
5304422,-47
5304429,-49
5304437,-50
5304445,-49
5304453,-44
5304461,-40
5304468,-38
5304476,-45
5304484,-57
5304492,-62
5304500,-58
5304508,-49
5304515,-45
5304523,-41
5304531,-44
5304539,-57
5304547,-77
5304554,-76
5304562,-55
5304570,-16
5304578,16
5304586,30
5304593,16
5304601,-21
5304609,-61
5304617,-80
5304625,-85
5304633,-79
5304640,-71
5304648,-71
5304656,-73
5304664,-35
5304672,13
5304679,-47
5304687,-361
5304695,-382
5304703,772
5304711,2523
5304718,2931
5304726,1163
5304734,-1254
5304742,-2241
5304750,-1602
5304758,-726
5304765,-502
5304773,-525
5304781,-383
5304789,-255
5304797,-191
5304804,-126
5304812,-84
5304820,-66
5304828,-56
5304836,-42
5304843,-23
5304851,-20
5304859,-25
5304867,-14
5304875,15
5304883,34
5304890,40
5304898,41
5304906,53
5304914,73
5304922,91
5304929,112
5304937,130
5304945,139
5304953,142
5304961,134
5304968,120
5304976,82
5304984,5
5304992,-121
5305000,-263
5305008,-382
5305015,-441
5305023,-443
5305031,-405
5305039,-349
5305047,-288
5305054,-231
5305062,-183
5305070,-146
5305078,-117
5305086,-92
5305093,-70
5305101,-66
5305109,-70
5305117,-71
5305125,-61
5305133,-42
5305140,-33
5305148,-38
5305156,-44
5305164,-50
5305172,-54
5305179,-57
5305187,-54
5305195,-60
5305203,-70
5305211,-69
5305218,-61
5305226,-50
5305234,-51
5305242,-56
5305250,-63
5305258,-64
5305265,-62
5305273,-58
5305281,-56
5305289,-51
5305297,-44
5305304,-42
5305312,-46
5305320,-50
5305328,-47
5305336,-42
5305343,-44
5305351,-52
5305359,-56
5305367,-51
5305375,-43
5305383,-36
5305390,-34
5305398,-47
5305406,-54
5305414,-59
5305422,-70
5305429,-69
5305437,-55
5305445,-19
5305453,16
5305461,26
5305468,13
5305476,-21
5305484,-61
5305492,-79
5305500,-83
5305508,-80
5305515,-77
5305523,-81
5305531,-76
5305539,-37
5305547,19
5305554,-34
5305562,-315
5305570,-285
5305578,853
5305586,2463
5305593,2711
5305601,909
5305609,-1392
5305617,-2233
5305625,-1511
5305633,-619
5305640,-401
5305648,-447
5305656,-341
5305664,-228
5305672,-164
5305679,-111
5305687,-92
5305695,-74
5305703,-48
5305711,-24
5305718,-18
5305726,-16
5305734,-15
5305742,-4
5305750,13
5305758,34
5305765,52
5305773,54
5305781,53
5305789,76
5305797,113
5305804,140
5305812,145
5305820,138
5305828,140
5305836,138
5305843,111
5305851,48
5305859,-52
5305867,-187
5305875,-331
5305883,-441
5305890,-482
5305898,-462
5305906,-414
5305914,-357
5305922,-288
5305929,-217
5305937,-168
5305945,-142
5305953,-125
5305961,-101
5305968,-68
5305976,-46
5305984,-34
5305992,-26
5306000,-33
5306008,-40
5306015,-37
5306023,-29
5306031,-24
5306039,-36
5306047,-48
5306054,-46
5306062,-43
5306070,-51
5306078,-63
5306086,-70
5306093,-68
5306101,-67
5306109,-64
5306117,-64
5306125,-62
5306133,-54
5306140,-45
5306148,-36
5306156,-47
5306164,-64
5306172,-67
5306179,-60
5306187,-46
5306195,-41
5306203,-49
5306211,-62
5306218,-64
5306226,-52
5306234,-22
5306242,6
5306250,19
5306258,13
5306265,-13
5306273,-48
5306281,-79
5306289,-90
5306297,-84
5306304,-70
5306312,-62
5306320,-74
5306328,-61
5306336,-8
5306343,9
5306351,-208
5306359,-427
5306367,251
5306375,1899
5306383,2897
5306390,1833
5306398,-548
5306406,-2085
5306414,-1859
5306422,-902
5306429,-448
5306437,-476
5306445,-406
5306453,-249
5306461,-179
5306468,-131
5306476,-87
5306484,-55
5306492,-36
5306500,-46
5306508,-47
5306515,-27
5306523,-9
5306531,4
5306539,7
5306547,13
5306554,33
5306562,56
5306570,76
5306578,91
5306586,102
5306593,114
5306601,137
5306609,158
5306617,161
5306625,152
5306633,129
5306640,85
5306648,-15
5306656,-165
5306664,-323
5306672,-426
5306679,-459
5306687,-436
5306695,-384
5306703,-326
5306711,-268
5306718,-219
5306726,-177
5306734,-137
5306742,-110
5306750,-93
5306758,-77
5306765,-52
5306773,-27
5306781,-20
5306789,-23
5306797,-28
5306804,-21
5306812,-7
5306820,-10
5306828,-20
5306836,-29
5306843,-43
5306851,-54
5306859,-59
5306867,-51
5306875,-44
5306883,-52
5306890,-64
5306898,-64
5306906,-55
5306914,-50
5306922,-57
5306929,-62
5306937,-58
5306945,-51
5306953,-51
5306961,-50
5306968,-46
5306976,-39
5306984,-43
5306992,-44
5307000,-49
5307008,-41
5307015,-43
5307023,-63
5307031,-74
5307039,-62
5307047,-26
5307054,11
5307062,32
5307070,26
5307078,-2
5307086,-45
5307093,-78
5307101,-87
5307109,-82
5307117,-73
5307125,-75
5307133,-78
5307140,-48
5307148,2
5307156,-12
5307164,-259
5307172,-455
5307179,346
5307187,2108
5307195,3067
5307203,1829
5307211,-672
5307218,-2202
5307226,-1899
5307234,-909
5307242,-487
5307250,-531
5307258,-444
5307265,-280
5307273,-191
5307281,-135
5307289,-101
5307297,-81
5307304,-60
5307312,-43
5307320,-37
5307328,-30
5307336,-23
5307343,-14
5307351,-6
5307359,3
5307367,16
5307375,35
5307383,54
5307390,79
5307398,101
5307406,118
5307414,135
5307422,153
5307429,165
5307437,158
5307445,137
5307453,101
5307461,22
5307468,-118
5307476,-278
5307484,-402
5307492,-448
5307500,-438
5307508,-407
5307515,-356
5307523,-289
5307531,-222
5307539,-173
5307547,-143
5307554,-121
5307562,-105
5307570,-86
5307578,-66
5307586,-46
5307593,-28
5307601,-21
5307609,-27
5307617,-32
5307625,-35
5307633,-32
5307640,-34
5307648,-39
5307656,-40
5307664,-40
5307672,-47
5307679,-63
5307687,-69
5307695,-62
5307703,-59
5307711,-59
5307718,-61
5307726,-60
5307734,-58
5307742,-63
5307750,-62
5307758,-54
5307765,-50
5307773,-54
5307781,-57
5307789,-53
5307797,-46
5307804,-43
5307812,-40
5307820,-44
5307828,-49
5307836,-51
5307843,-51
5307851,-40
5307859,-39
5307867,-48
5307875,-61
5307883,-72
5307890,-72
5307898,-71
5307906,-62
5307914,-48
5307922,-25
5307929,7
5307937,25
5307945,7
5307953,-34
5307961,-73
5307968,-83
5307976,-80
5307984,-73
5307992,-69
5308000,-79
5308008,-66
5308015,-16
5308023,14
5308031,-148
5308039,-465
5308047,-86
5308054,1497
5308062,2986
5308070,2524
5308078,194
5308086,-1901
5308093,-2186
5308101,-1255
5308109,-584
5308117,-539
5308125,-509
5308133,-326
5308140,-221
5308148,-173
5308156,-131
5308164,-97
5308172,-62
5308179,-47
5308187,-39
5308195,-39
5308203,-32
5308211,-20
5308218,-5
5308226,7
5308234,16
5308242,24
5308250,38
5308258,59
5308265,84
5308273,109
5308281,136
5308289,160
5308297,178
5308304,181
5308312,168
5308320,127
5308328,56
5308336,-52
5308343,-196
5308351,-338
5308359,-444
5308367,-471
5308375,-434
5308383,-376
5308390,-321
5308398,-267
5308406,-214
5308414,-168
5308422,-140
5308429,-115
5308437,-89
5308445,-68
5308453,-64
5308461,-64
5308468,-53
5308476,-43
5308484,-36
5308492,-39
5308500,-42
5308508,-43
5308515,-39
5308523,-40
5308531,-44
5308539,-52
5308547,-57
5308554,-54
5308562,-55
5308570,-57
5308578,-58
5308586,-53
5308593,-54
5308601,-62
5308609,-66
5308617,-59
5308625,-50
5308633,-48
5308640,-51
5308648,-54
5308656,-55
5308664,-49
5308672,-43
5308679,-44
5308687,-51
5308695,-51
5308703,-47
5308711,-39
5308718,-42
5308726,-49
5308734,-53
5308742,-49
5308750,-43
5308758,-43
5308765,-44
5308773,-43
5308781,-45
5308789,-46
5308797,-43
5308804,-45
5308812,-44
5308820,-45
5308828,-41
5308836,-51
5308843,-68
5308851,-81
5308859,-66
5308867,-28
5308875,14
5308883,31
5308890,22
5308898,-5
5308906,-40
5308914,-67
5308922,-78
5308929,-76
5308937,-62
5308945,-62
5308953,-79
5308961,-59
5308968,-3
5308976,-20
5308984,-287
5308992,-439
5309000,485
5309008,2273
5309015,3081
5309023,1660
5309031,-850
5309039,-2233
5309047,-1827
5309054,-868
5309062,-504
5309070,-539
5309078,-429
5309086,-280
5309093,-209
5309101,-147
5309109,-98
5309117,-71
5309125,-54
5309133,-46
5309140,-42
5309148,-28
5309156,-13
5309164,-4
5309172,1
5309179,10
5309187,28
5309195,49
5309203,64
5309211,78
5309218,97
5309226,121
5309234,142
5309242,159
5309250,169
5309258,168
5309265,154
5309273,119
5309281,53
5309289,-54
5309297,-202
5309304,-347
5309312,-441
5309320,-465
5309328,-434
5309336,-380
5309343,-319
5309351,-261
5309359,-212
5309367,-170
5309375,-131
5309383,-97
5309390,-80
5309398,-71
5309406,-66
5309414,-62
5309422,-62
5309429,-55
5309437,-48
5309445,-38
5309453,-35
5309461,-40
5309468,-44
5309476,-44
5309484,-48
5309492,-51
5309500,-55
5309508,-56
5309515,-56
5309523,-56
5309531,-52
5309539,-57
5309547,-68
5309554,-73
5309562,-65
5309570,-51
5309578,-50
5309586,-51
5309593,-49
5309601,-50
5309609,-54
5309617,-57
5309625,-52
5309633,-48
5309640,-51
5309648,-52
5309656,-49
5309664,-44
5309672,-45
5309679,-52
5309687,-51
5309695,-46
5309703,-44
5309711,-44
5309718,-48
5309726,-51
5309734,-50
5309742,-46
5309750,-38
5309758,-36
5309765,-45
5309773,-55
5309781,-59
5309789,-53
5309797,-49
5309804,-49
5309812,-51
5309820,-51
5309828,-49
5309836,-48
5309843,-51
5309851,-58
5309859,-67
5309867,-73
5309875,-68
5309883,-49
5309890,-16
5309898,17
5309906,28
5309914,5
5309922,-44
5309929,-75
5309937,-83
5309945,-76
5309953,-63
5309961,-57
5309968,-73
5309976,-64
5309984,-20
5309992,-1
5310000,-203
5310008,-486
5310015,70
5310023,1768
5310031,3080
5310039,2282
5310047,-162
5310054,-2035
5310062,-2066
5310070,-1109
5310078,-556
5310086,-553
5310093,-485
5310101,-309
5310109,-227
5310117,-168
5310125,-111
5310133,-74
5310140,-57
5310148,-55
5310156,-48
5310164,-27
5310172,-12
5310179,-9
5310187,-10
5310195,-1
5310203,18
5310211,39
5310218,54
5310226,72
5310234,89
5310242,97
5310250,117
5310258,150
5310265,182
5310273,182
5310281,161
5310289,132
5310297,89
5310304,3
5310312,-140
5310320,-290
5310328,-402
5310336,-449
5310343,-446
5310351,-402
5310359,-347
5310367,-291
5310375,-239
5310383,-192
5310390,-148
5310398,-112
5310406,-89
5310414,-76
5310422,-70
5310429,-65
5310437,-57
5310445,-46
5310453,-43
5310461,-52
5310468,-57
5310476,-48
5310484,-36
5310492,-36
5310500,-46
5310508,-53
5310515,-52
5310523,-54
5310531,-56
5310539,-53
5310547,-47
5310554,-46
5310562,-53
5310570,-64
5310578,-73
5310586,-73
5310593,-63
5310601,-57
5310609,-53
5310617,-51
5310625,-47
5310633,-36
5310640,-41
5310648,-53
5310656,-57
5310664,-54
5310672,-49
5310679,-50
5310687,-47
5310695,-39
5310703,-36
5310711,-48
5310718,-62
5310726,-59
5310734,-48
5310742,-41
5310750,-44
5310758,-55
5310765,-58
5310773,-48
5310781,-35
5310789,-44
5310797,-64
5310804,-76
5310812,-60
5310820,-32
5310828,1
5310836,22
5310843,24
5310851,2
5310859,-45
5310867,-86
5310875,-92
5310883,-75
5310890,-58
5310898,-67
5310906,-83
5310914,-55
5310922,8
5310929,-5
5310937,-274
5310945,-384
5310953,573
5310961,2263
5310968,2868
5310976,1350
5310984,-1051
5310992,-2222
5311000,-1693
5311008,-743
5311015,-424
5311023,-465
5311031,-363
5311039,-242
5311047,-189
5311054,-131
5311062,-82
5311070,-52
5311078,-30
5311086,-33
5311093,-25
5311101,-17
5311109,-11
5311117,-8
5311125,4
5311133,18
5311140,32
5311148,50
5311156,76
5311164,98
5311172,119
5311179,125
5311187,143
5311195,171
5311203,183
5311211,170
5311218,136
5311226,93
5311234,16
5311242,-123
5311250,-288
5311258,-421
5311265,-487
5311273,-490
5311281,-450
5311289,-386
5311297,-322
5311304,-266
5311312,-218
5311320,-180
5311328,-140
5311336,-111
5311343,-87
5311351,-64
5311359,-48
5311367,-38
5311375,-31
5311383,-26
5311390,-27
5311398,-31
5311406,-37
5311414,-38
5311422,-32
5311429,-30
5311437,-34
5311445,-48
5311453,-60
5311461,-65
5311468,-62
5311476,-58
5311484,-59
5311492,-58
5311500,-56
5311508,-57
5311515,-59
5311523,-62
5311531,-58
5311539,-50
5311547,-47
5311554,-54
5311562,-57
5311570,-50
5311578,-52
5311586,-58
5311593,-57
5311601,-47
5311609,-36
5311617,-43
5311625,-57
5311633,-69
5311640,-66
5311648,-50
5311656,-21
5311664,6
5311672,24
5311679,14
5311687,-15
5311695,-54
5311703,-83
5311711,-94
5311718,-88
5311726,-70
5311734,-62
5311742,-68
5311750,-44
5311758,10
5311765,-6
5311773,-272
5311781,-416
5311789,497
5311797,2231
5311804,2966
5311812,1524
5311820,-934
5311828,-2222
5311836,-1760
5311843,-799
5311851,-457
5311859,-500
5311867,-397
5311875,-241
5311883,-168
5311890,-120
5311898,-98
5311906,-83
5311914,-65
5311922,-44
5311929,-29
5311937,-27
5311945,-19
5311953,-7
5311961,4
5311968,13
5311976,22
5311984,36
5311992,62
5312000,87
5312008,113
5312015,133
5312023,151
5312031,170
5312039,178
5312047,171
5312054,143
5312062,89
5312070,2
5312078,-137
5312086,-294
5312093,-418
5312101,-469
5312109,-457
5312117,-420
5312125,-367
5312133,-302
5312140,-241
5312148,-188
5312156,-151
5312164,-131
5312172,-111
5312179,-86
5312187,-58
5312195,-37
5312203,-35
5312211,-32
5312218,-28
5312226,-18
5312234,-13
5312242,-15
5312250,-23
5312258,-39
5312265,-52
5312273,-51
5312281,-48
5312289,-54
5312297,-62
5312304,-63
5312312,-61
5312320,-61
5312328,-67
5312336,-64
5312343,-55
5312351,-56
5312359,-61
5312367,-61
5312375,-56
5312383,-53
5312390,-50
5312398,-50
5312406,-47
5312414,-45
5312422,-46
5312429,-44
5312437,-45
5312445,-46
5312453,-46
5312461,-47
5312468,-45
5312476,-45
5312484,-60
5312492,-75
5312500,-75
5312508,-50
5312515,-11
5312523,23
5312531,33
5312539,22
5312547,-11
5312554,-50
5312562,-73
5312570,-78
5312578,-72
5312586,-64
5312593,-72
5312601,-69
5312609,-23
5312617,20
5312625,-104
5312633,-431
5312640,-182
5312648,1287
5312656,2869
5312664,2654
5312672,459
5312679,-1744
5312687,-2210
5312695,-1334
5312703,-590
5312711,-502
5312718,-499
5312726,-336
5312734,-229
5312742,-174
5312750,-123
5312758,-90
5312765,-63
5312773,-46
5312781,-39
5312789,-35
5312797,-25
5312804,-15
5312812,-5
5312820,1
5312828,12
5312836,24
5312843,42
5312851,65
5312859,88
5312867,112
5312875,137
5312883,157
5312890,176
5312898,187
5312906,181
5312914,152
5312922,95
5312929,-13
5312937,-170
5312945,-328
5312953,-431
5312961,-460
5312968,-437
5312976,-396
5312984,-346
5312992,-290
5313000,-231
5313008,-178
5313015,-138
5313023,-113
5313031,-96
5313039,-81
5313047,-67
5313054,-60
5313062,-49
5313070,-44
5313078,-37
5313086,-33
5313093,-31
5313101,-34
5313109,-39
5313117,-45
5313125,-48
5313133,-47
5313140,-46
5313148,-48
5313156,-54
5313164,-62
5313172,-62
5313179,-61
5313187,-55
5313195,-59
5313203,-61
5313211,-60
5313218,-54
5313226,-52
5313234,-50
5313242,-53
5313250,-53
5313258,-48
5313265,-47
5313273,-46
5313281,-50
5313289,-49
5313297,-48
5313304,-48
5313312,-47
5313320,-47
5313328,-45
5313336,-43
5313343,-47
5313351,-62
5313359,-80
5313367,-80
5313375,-56
5313383,-16
5313390,21
5313398,35
5313406,18
5313414,-20
5313422,-61
5313429,-79
5313437,-82
5313445,-73
5313453,-67
5313461,-77
5313468,-73
5313476,-28
5313484,12
5313492,-106
5313500,-420
5313508,-165
5313515,1280
5313523,2824
5313531,2600
5313539,431
5313547,-1728
5313554,-2178
5313562,-1307
5313570,-582
5313578,-505
5313586,-505
5313593,-339
5313601,-225
5313609,-164
5313617,-114
5313625,-83
5313633,-57
5313640,-37
5313648,-26
5313656,-23
5313664,-26
5313672,-26
5313679,-13
5313687,8
5313695,25
5313703,35
5313711,44
5313718,58
5313726,81
5313734,109
5313742,137
5313750,164
5313758,176
5313765,176
5313773,165
5313781,135
5313789,76
5313797,-32
5313804,-182
5313812,-334
5313820,-441
5313828,-481
5313836,-463
5313843,-417
5313851,-356
5313859,-291
5313867,-227
5313875,-172
5313883,-139
5313890,-115
5313898,-96
5313906,-88
5313914,-83
5313922,-73
5313929,-52
5313937,-38
5313945,-39
5313953,-45
5313961,-49
5313968,-44
5313976,-46
5313984,-53
5313992,-53
5314000,-50
5314008,-53
5314015,-58
5314023,-70
5314031,-72
5314039,-70
5314047,-66
5314054,-65
5314062,-68
5314070,-71
5314078,-67
5314086,-57
5314093,-49
5314101,-55
5314109,-62
5314117,-68
5314125,-69
5314133,-65
5314140,-59
5314148,-54
5314156,-53
5314164,-51
5314172,-49
5314179,-54
5314187,-68
5314195,-82
5314203,-77
5314211,-49
5314218,-10
5314226,24
5314234,30
5314242,6
5314250,-40
5314258,-76
5314265,-91
5314273,-91
5314281,-84
5314289,-72
5314297,-71
5314304,-64
5314312,-19
5314320,20
5314328,-125
5314336,-424
5314343,-26
5314351,1521
5314359,2873
5314367,2286
5314375,-25
5314383,-1957
5314390,-2072
5314398,-1095
5314406,-463
5314414,-454
5314422,-448
5314429,-295
5314437,-201
5314445,-144
5314453,-99
5314461,-77
5314468,-54
5314476,-32
5314484,-15
5314492,-12
5314500,-13
5314508,-5
5314515,9
5314523,13
5314531,21
5314539,37
5314547,67
5314554,94
5314562,108
5314570,126
5314578,150
5314586,173
5314593,176
5314601,168
5314609,156
5314617,122
5314625,36
5314633,-109
5314640,-281
5314648,-419
5314656,-486
5314664,-485
5314672,-442
5314679,-389
5314687,-329
5314695,-276
5314703,-222
5314711,-175
5314718,-135
5314726,-101
5314734,-79
5314742,-71
5314750,-63
5314758,-50
5314765,-37
5314773,-22
5314781,-15
5314789,-19
5314797,-33
5314804,-46
5314812,-47
5314820,-47
5314828,-53
5314836,-57
5314843,-56
5314851,-53
5314859,-54
5314867,-53
5314875,-52
5314883,-54
5314890,-61
5314898,-69
5314906,-73
5314914,-64
5314922,-58
5314929,-50
5314937,-44
5314945,-43
5314953,-52
5314961,-61
5314968,-72
5314976,-69
5314984,-65
5314992,-58
5315000,-48
5315008,-18
5315015,14
5315023,29
5315031,9
5315039,-41
5315047,-82
5315054,-91
5315062,-84
5315070,-70
5315078,-61
5315086,-66
5315093,-58
5315101,-15
5315109,27
5315117,-121
5315125,-417
5315133,-14
5315140,1519
5315148,2851
5315156,2260
5315164,-40
5315172,-1952
5315179,-2068
5315187,-1096
5315195,-460
5315203,-434
5315211,-419
5315218,-276
5315226,-201
5315234,-148
5315242,-95
5315250,-64
5315258,-44
5315265,-43
5315273,-39
5315281,-23
5315289,-7
5315297,2
5315304,2
5315312,8
5315320,29
5315328,57
5315336,79
5315343,84
5315351,89
5315359,107
5315367,150
5315375,181
5315383,183
5315390,166
5315398,135
5315406,85
5315414,-12
5315422,-151
5315429,-308
5315437,-437
5315445,-505
5315453,-494
5315461,-428
5315468,-347
5315476,-282
5315484,-238
5315492,-206
5315500,-169
5315508,-133
5315515,-101
5315523,-78
5315531,-58
5315539,-45
5315547,-37
5315554,-32
5315562,-29
5315570,-26
5315578,-25
5315586,-33
5315593,-38
5315601,-37
5315609,-34
5315617,-36
5315625,-50
5315633,-63
5315640,-61
5315648,-61
5315656,-65
5315664,-71
5315672,-66
5315679,-60
5315687,-62
5315695,-70
5315703,-67
5315711,-57
5315718,-48
5315726,-48
5315734,-50
5315742,-62
5315750,-69
5315758,-73
5315765,-64
5315773,-38
5315781,-6
5315789,23
5315797,27
5315804,-12
5315812,-60
5315820,-89
5315828,-87
5315836,-74
5315843,-63
5315851,-64
5315859,-78
5315867,-55
5315875,2
5315883,2
5315890,-237
5315898,-433
5315906,371
5315914,2099
5315922,2996
5315929,1713
5315937,-762
5315945,-2209
5315953,-1847
5315961,-860
5315968,-462
5315976,-510
5315984,-416
5315992,-253
5316000,-177
5316008,-132
5316015,-110
5316023,-89
5316031,-62
5316039,-37
5316047,-31
5316054,-30
5316062,-21
5316070,-5
5316078,7
5316086,14
5316093,18
5316101,32
5316109,59
5316117,88
5316125,115
5316133,140
5316140,160
5316148,172
5316156,172
5316164,162
5316172,133
5316179,71
5316187,-43
5316195,-192
5316203,-341
5316211,-437
5316218,-464
5316226,-440
5316234,-396
5316242,-341
5316250,-273
5316258,-204
5316265,-154
5316273,-128
5316281,-118
5316289,-100
5316297,-75
5316304,-55
5316312,-44
5316320,-40
5316328,-42
5316336,-35
5316343,-31
5316351,-35
5316359,-43
5316367,-39
5316375,-32
5316383,-30
5316390,-42
5316398,-55
5316406,-64
5316414,-62
5316422,-67
5316429,-74
5316437,-80
5316445,-75
5316453,-64
5316461,-52
5316468,-58
5316476,-63
5316484,-66
5316492,-63
5316500,-61
5316508,-56
5316515,-49
5316523,-42
5316531,-40
5316539,-46
5316547,-49
5316554,-56
5316562,-60
5316570,-65
5316578,-72
5316586,-79
5316593,-71
5316601,-46
5316609,-6
5316617,24
5316625,26
5316633,0
5316640,-37
5316648,-70
5316656,-79
5316664,-79
5316672,-69
5316679,-71
5316687,-89
5316695,-79
5316703,-25
5316711,4
5316718,-181
5316726,-462
5316734,63
5316742,1725
5316750,3031
5316758,2271
5316765,-153
5316773,-2048
5316781,-2092
5316789,-1114
5316797,-532
5316804,-532
5316812,-484
5316820,-307
5316828,-214
5316836,-159
5316843,-114
5316851,-79
5316859,-55
5316867,-47
5316875,-48
5316883,-38
5316890,-19
5316898,-9
5316906,-7
5316914,-6
5316922,14
5316929,48
5316937,74
5316945,85
5316953,94
5316961,111
5316968,139
5316976,163
5316984,179
5316992,177
5317000,155
5317008,109
5317015,32
5317023,-97
5317031,-248
5317039,-383
5317047,-455
5317054,-462
5317062,-425
5317070,-369
5317078,-309
5317086,-250
5317093,-198
5317101,-149
5317109,-111
5317117,-91
5317125,-81
5317133,-69
5317140,-59
5317148,-49
5317156,-42
5317164,-36
5317172,-30
5317179,-34
5317187,-44
5317195,-49
5317203,-46
5317211,-41
5317218,-34
5317226,-36
5317234,-40
5317242,-57
5317250,-68
5317258,-68
5317265,-59
5317273,-55
5317281,-58
5317289,-65
5317297,-63
5317304,-59
5317312,-58
5317320,-57
5317328,-59
5317336,-56
5317343,-53
5317351,-52
5317359,-51
5317367,-50
5317375,-55
5317383,-60
5317390,-55
5317398,-47
5317406,-47
5317414,-51
5317422,-55
5317429,-51
5317437,-49
5317445,-65
5317453,-77
5317461,-70
5317468,-46
5317476,-10
5317484,20
5317492,29
5317500,8
5317508,-30
5317515,-66
5317523,-84
5317531,-91
5317539,-81
5317547,-67
5317554,-69
5317562,-70
5317570,-34
5317578,2
5317586,-131
5317593,-441
5317601,-136
5317609,1386
5317617,2919
5317625,2578
5317633,318
5317640,-1823
5317648,-2192
5317656,-1281
5317664,-571
5317672,-504
5317679,-500
5317687,-337
5317695,-233
5317703,-176
5317711,-126
5317718,-92
5317726,-61
5317734,-33
5317742,-27
5317750,-28
5317758,-29
5317765,-21
5317773,-4
5317781,12
5317789,24
5317797,30
5317804,45
5317812,68
5317820,91
5317828,117
5317836,150
5317843,170
5317851,176
5317859,168
5317867,155
5317875,128
5317883,66
5317890,-51
5317898,-202
5317906,-352
5317914,-450
5317922,-472
5317929,-437
5317937,-384
5317945,-326
5317953,-265
5317961,-207
5317968,-161
5317976,-131
5317984,-114
5317992,-95
5318000,-74
5318008,-59
5318015,-46
5318023,-40
5318031,-43
5318039,-40
5318047,-31
5318054,-23
5318062,-23
5318070,-35
5318078,-50
5318086,-60
5318093,-54
5318101,-50
5318109,-49
5318117,-53
5318125,-60
5318133,-59
5318140,-59
5318148,-57
5318156,-56
5318164,-59
5318172,-62
5318179,-62
5318187,-52
5318195,-43
5318203,-48
5318211,-48
5318218,-47
5318226,-41
5318234,-46
5318242,-56
5318250,-58
5318258,-51
5318265,-44
5318273,-45
5318281,-52
5318289,-51
5318297,-43
5318304,-37
5318312,-35
5318320,-46
5318328,-52
5318336,-52
5318343,-51
5318351,-50
5318359,-51
5318367,-50
5318375,-44
5318383,-44
5318390,-45
5318398,-47
5318406,-48
5318414,-46
5318422,-49
5318429,-61
5318437,-72
5318445,-72
5318453,-57
5318461,-26
5318468,9
5318476,30
5318484,21
5318492,-12
5318500,-50
5318508,-76
5318515,-84
5318523,-80
5318531,-65
5318539,-61
5318547,-72
5318554,-50
5318562,-4
5318570,-44
5318578,-329
5318586,-410
5318593,654
5318601,2442
5318609,3041
5318617,1411
5318625,-1087
5318633,-2272
5318640,-1735
5318648,-801
5318656,-510
5318664,-543
5318672,-414
5318679,-271
5318687,-201
5318695,-135
5318703,-91
5318711,-66
5318718,-49
5318726,-45
5318734,-40
5318742,-33
5318750,-26
5318758,-13
5318765,1
5318773,17
5318781,32
5318789,45
5318797,51
5318804,64
5318812,85
5318820,109
5318828,132
5318836,155
5318843,168
5318851,171
5318859,157
5318867,122
5318875,52
5318883,-66
5318890,-217
5318898,-359
5318906,-447
5318914,-469
5318922,-439
5318929,-382
5318937,-314
5318945,-247
5318953,-194
5318961,-155
5318968,-129
5318976,-105
5318984,-82
5318992,-64
5319000,-56
5319008,-56
5319015,-56
5319023,-51
5319031,-47
5319039,-52
5319047,-52
5319054,-46
5319062,-41
5319070,-39
5319078,-47
5319086,-50
5319093,-45
5319101,-44
5319109,-42
5319117,-47
5319125,-59
5319133,-67
5319140,-64
5319148,-55
5319156,-48
5319164,-44
5319172,-45
5319179,-46
5319187,-48
5319195,-49
5319203,-46
5319211,-40
5319218,-44
5319226,-54
5319234,-60
5319242,-54
5319250,-41
5319258,-38
5319265,-43
5319273,-47
5319281,-47
5319289,-49
5319297,-46
5319304,-47
5319312,-38
5319320,-38
5319328,-44
5319336,-55
5319343,-58
5319351,-54
5319359,-46
5319367,-45
5319375,-53
5319383,-69
5319390,-76
5319398,-69
5319406,-45
5319414,-10
5319422,18
5319429,29
5319437,13
5319445,-29
5319453,-69
5319461,-86
5319468,-86
5319476,-75
5319484,-60
5319492,-69
5319500,-71
5319508,-32
5319515,11
5319523,-110
5319531,-432
5319539,-174
5319547,1290
5319554,2836
5319562,2584
5319570,399
5319578,-1746
5319586,-2176
5319593,-1304
5319601,-586
5319609,-506
5319617,-499
5319625,-333
5319633,-225
5319640,-163
5319648,-113
5319656,-80
5319664,-62
5319672,-51
5319679,-44
5319687,-37
5319695,-30
5319703,-19
5319711,-7
5319718,6
5319726,17
5319734,30
5319742,51
5319750,71
5319758,88
5319765,105
5319773,134
5319781,170
5319789,187
5319797,179
5319804,154
5319812,126
5319820,84
5319828,-9
5319836,-160
5319843,-321
5319851,-439
5319859,-479
5319867,-460
5319875,-406
5319883,-338
5319890,-277
5319898,-228
5319906,-185
5319914,-149
5319922,-117
5319929,-99
5319937,-84
5319945,-72
5319953,-59
5319961,-55
5319968,-52
5319976,-49
5319984,-37
5319992,-26
5320000,-23
5320008,-32
5320015,-46
5320023,-52
5320031,-49
5320039,-50
5320047,-55
5320054,-58
5320062,-60
5320070,-60
5320078,-61
5320086,-59
5320093,-54
5320101,-56
5320109,-57
5320117,-62
5320125,-59
5320133,-55
5320140,-49
5320148,-48
5320156,-54
5320164,-61
5320172,-52
5320179,-40
5320187,-37
5320195,-46
5320203,-53
5320211,-57
5320218,-61
5320226,-62
5320234,-54
5320242,-43
5320250,-33
5320258,-39
5320265,-51
5320273,-55
5320281,-57
5320289,-55
5320297,-66
5320304,-75
5320312,-73
5320320,-57
5320328,-36
5320336,-8
5320343,22
5320351,27
5320359,-8
5320367,-64
5320375,-97
5320383,-91
5320390,-75
5320398,-60
5320406,-72
5320414,-85
5320422,-63
5320429,-3
5320437,-16
5320445,-283
5320453,-404
5320461,552
5320468,2290
5320476,2962
5320484,1442
5320492,-1013
5320500,-2236
5320508,-1726
5320515,-788
5320523,-481
5320531,-520
5320539,-394
5320547,-250
5320554,-202
5320562,-148
5320570,-90
5320578,-52
5320586,-37
5320593,-42
5320601,-38
5320609,-22
5320617,-9
5320625,-8
5320633,-4
5320640,8
5320648,25
5320656,43
5320664,65
5320672,91
5320679,115
5320687,137
5320695,161
5320703,184
5320711,192
5320718,185
5320726,165
5320734,112
5320742,-2
5320750,-179
5320758,-349
5320765,-449
5320773,-475
5320781,-469
5320789,-443
5320797,-383
5320804,-294
5320812,-210
5320820,-162
5320828,-141
5320836,-143
5320843,-152
5320851,-160
5320859,-143
5320867,-98
5320875,-43
5320883,-10
5320890,6
5320898,6
5320906,-14
5320914,-28
5320922,-27
5320929,-28
5320937,-37
5320945,-60
5320953,-89
5320961,-101
5320968,-82
5320976,-41
5320984,-16
5320992,-23
5321000,-58
5321008,-84
5321015,-75
5321023,-60
5321031,-53
5321039,-69
5321047,-93
5321054,-85
5321062,-49
5321070,-26
5321078,-39
5321086,-65
5321093,-72
5321101,-58
5321109,-20
5321117,18
5321125,35
5321133,24
5321140,-12
5321148,-47
5321156,-69
5321164,-81
5321172,-89
5321179,-86
5321187,-70
5321195,-51
5321203,-18
5321211,15
5321218,6
5321226,-179
5321234,-465
5321242,-27
5321250,1552
5321258,2926
5321265,2345
5321273,12
5321281,-1960
5321289,-2110
5321297,-1130
5321304,-467
5321312,-437
5321320,-435
5321328,-311
5321336,-241
5321343,-174
5321351,-95
5321359,-55
5321367,-40
5321375,-27
5321383,-8
5321390,-6
5321398,-22
5321406,-14
5321414,18
5321422,33
5321429,20
5321437,24
5321445,67
5321453,114
5321461,137
5321468,148
5321476,171
5321484,183
5321492,181
5321500,175
5321508,169
5321515,120
5321523,-5
5321531,-185
5321539,-351
5321547,-459
5321554,-506
5321562,-498
5321570,-452
5321578,-388
5321586,-312
5321593,-242
5321601,-194
5321609,-156
5321617,-115
5321625,-79
5321633,-75
5321640,-96
5321648,-100
5321656,-66
5321664,-28
5321672,-6
5321679,4
5321687,0
5321695,-30
5321703,-68
5321711,-73
5321718,-33
5321726,-2
5321734,-19
5321742,-59
5321750,-72
5321758,-67
5321765,-71
5321773,-73
5321781,-59
5321789,-33
5321797,-43
5321804,-87
5321812,-120
5321820,-109
5321828,-75
5321836,-59
5321843,-60
5321851,-34
5321859,18
5321867,60
5321875,48
5321883,-21
5321890,-76
5321898,-84
5321906,-78
5321914,-92
5321922,-104
5321929,-95
5321937,-71
5321945,-44
5321953,-4
5321961,-27
5321968,-282
5321976,-362
5321984,649
5321992,2396
5322000,3003
5322008,1399
5322015,-1098
5322023,-2302
5322031,-1754
5322039,-784
5322047,-460
5322054,-491
5322062,-377
5322070,-244
5322078,-188
5322086,-136
5322093,-89
5322101,-54
5322109,-44
5322117,-52
5322125,-40
5322133,-5
5322140,23
5322148,36
5322156,32
5322164,24
5322172,31
5322179,48
5322187,67
5322195,83
5322203,98
5322211,135
5322218,181
5322226,209
5322234,204
5322242,181
5322250,142
5322258,62
5322265,-77
5322273,-244
5322281,-398
5322289,-494
5322297,-505
5322304,-456
5322312,-377
5322320,-298
5322328,-236
5322336,-193
5322343,-163
5322351,-150
5322359,-144
5322367,-127
5322375,-95
5322383,-83
5322390,-67
5322398,-42
5322406,0
5322414,28
5322422,23
5322429,-15
5322437,-57
5322445,-72
5322453,-64
5322461,-51
5322468,-51
5322476,-69
5322484,-90
5322492,-94
5322500,-79
5322508,-51
5322515,-26
5322523,-43
5322531,-73
5322539,-81
5322547,-37
5322554,22
5322562,42
5322570,29
5322578,-2
5322586,-39
5322593,-75
5322601,-112
5322609,-110
5322617,-58
5322625,-24
5322633,-42
5322640,-48
5322648,-4
5322656,-21
5322664,-302
5322672,-337
5322679,815
5322687,2606
5322695,3038
5322703,1197
5322711,-1337
5322718,-2372
5322726,-1672
5322734,-719
5322742,-492
5322750,-547
5322758,-390
5322765,-230
5322773,-173
5322781,-142
5322789,-100
5322797,-47
5322804,-17
5322812,-30
5322820,-49
5322828,-42
5322836,-2
5322843,15
5322851,5
5322859,4
5322867,52
5322875,104
5322883,107
5322890,69
5322898,71
5322906,140
5322914,215
5322922,234
5322929,206
5322937,165
5322945,104
5322953,5
5322961,-163
5322968,-349
5322976,-461
5322984,-471
5322992,-428
5323000,-391
5323008,-350
5323015,-293
5323023,-242
5323031,-218
5323039,-202
5323047,-161
5323054,-107
5323062,-70
5323070,-48
5323078,-24
5323086,-8
5323093,-7
5323101,-6
5323109,2
5323117,-5
5323125,-39
5323133,-67
5323140,-66
5323148,-50
5323156,-38
5323164,-46
5323172,-52
5323179,-64
5323187,-89
5323195,-95
5323203,-66
5323211,-3
5323218,50
5323226,46
5323234,-7
5323242,-54
5323250,-56
5323258,-61
5323265,-82
5323273,-102
5323281,-93
5323289,-72
5323297,-32
5323304,20
5323312,28
5323320,-229
5323328,-492
5323336,257
5323343,2102
5323351,3230
5323359,2056
5323367,-577
5323375,-2282
5323383,-2044
5323390,-994
5323398,-500
5323406,-520
5323414,-444
5323422,-286
5323429,-208
5323437,-136
5323445,-90
5323453,-76
5323461,-76
5323468,-67
5323476,-41
5323484,-7
5323492,16
5323500,34
5323508,33
5323515,25
5323523,26
5323531,58
5323539,78
5323547,94
5323554,115
5323562,156
5323570,202
5323578,219
5323586,191
5323593,157
5323601,107
5323609,9
5323617,-159
5323625,-335
5323633,-452
5323640,-482
5323648,-457
5323656,-410
5323664,-349
5323672,-283
5323679,-234
5323687,-210
5323695,-190
5323703,-153
5323711,-100
5323718,-53
5323726,-20
5323734,-22
5323742,-48
5323750,-66
5323758,-58
5323765,-39
5323773,-35
5323781,-49
5323789,-47
5323797,-21
5323804,-17
5323812,-40
5323820,-54
5323828,-52
5323836,-64
5323843,-96
5323851,-103
5323859,-72
5323867,-28
5323875,1
5323883,-4
5323890,-10
5323898,-20
5323906,-47
5323914,-65
5323922,-66
5323929,-58
5323937,-75
5323945,-76
5323953,-40
5323961,-2
5323968,-144
5323976,-463
5323984,-132
5323992,1447
5324000,3034
5324008,2713
5324015,397
5324023,-1854
5324031,-2304
5324039,-1386
5324047,-611
5324054,-501
5324062,-495
5324070,-331
5324078,-207
5324086,-150
5324093,-132
5324101,-114
5324109,-37
5324117,26
5324125,2
5324133,-59
5324140,-60
5324148,-7
5324156,28
5324164,21
5324172,13
5324179,40
5324187,81
5324195,107
5324203,134
5324211,173
5324218,197
5324226,173
5324234,143
5324242,125
5324250,106
5324258,47
5324265,-74
5324273,-238
5324281,-380
5324289,-456
5324297,-452
5324304,-412
5324312,-360
5324320,-312
5324328,-254
5324336,-187
5324343,-140
5324351,-119
5324359,-96
5324367,-56
5324375,-23
5324383,-34
5324390,-74
5324398,-97
5324406,-59
5324414,-4
5324422,-7
5324429,-41
5324437,-59
5324445,-48
5324453,-40
5324461,-50
5324468,-49
5324476,-33
5324484,-23
5324492,-21
5324500,-26
5324508,-49
5324515,-85
5324523,-110
5324531,-123
5324539,-128
5324547,-105
5324554,-49
5324562,13
5324570,47
5324578,40
5324586,10
5324593,-27
5324601,-52
5324609,-63
5324617,-58
5324625,-50
5324633,-63
5324640,-66
5324648,-22
5324656,15
5324664,-71
5324672,-373
5324679,-324
5324687,932
5324695,2692
5324703,2971
5324711,1042
5324718,-1423
5324726,-2344
5324734,-1621
5324742,-710
5324750,-496
5324758,-536
5324765,-397
5324773,-252
5324781,-167
5324789,-105
5324797,-87
5324804,-75
5324812,-43
5324820,-12
5324828,-14
5324836,-33
5324843,-44
5324851,-27
5324859,13
5324867,54
5324875,66
5324883,67
5324890,84
5324898,118
5324906,141
5324914,157
5324922,168
5324929,181
5324937,178
5324945,140
5324953,84
5324961,-2
5324968,-142
5324976,-316
5324984,-451
5324992,-485
5325000,-450
5325008,-386
5325015,-323
5325023,-266
5325031,-201
5325039,-138
5325047,-78
5325054,-49
5325062,-77
5325070,-126
5325078,-135
5325086,-84
5325093,-29
5325101,-10
5325109,-20
5325117,-28
5325125,-36
5325133,-43
5325140,-53
5325148,-54
5325156,-39
5325164,-23
5325172,-30
5325179,-64
5325187,-97
5325195,-100
5325203,-64
5325211,-34
5325218,-46
5325226,-70
5325234,-63
5325242,-31
5325250,-26
5325258,-66
5325265,-110
5325273,-112
5325281,-79
5325289,-29
5325297,5
5325304,21
5325312,24
5325320,20
5325328,-5
5325336,-65
5325343,-117
5325351,-133
5325359,-92
5325367,-24
5325375,-9
5325383,-28
5325390,-34
5325398,-25
5325406,-171
5325414,-466
5325422,-82
5325429,1517
5325437,3018
5325445,2550
5325453,193
5325461,-1900
5325468,-2174
5325476,-1261
5325484,-615
5325492,-574
5325500,-517
5325508,-322
5325515,-224
5325523,-166
5325531,-91
5325539,-40
5325547,-38
5325554,-64
5325562,-69
5325570,-39
5325578,-18
5325586,-14
5325593,4
5325601,33
5325609,43
5325617,35
5325625,61
5325633,109
5325640,147
5325648,150
5325656,142
5325664,144
5325672,159
5325679,169
5325687,164
5325695,87
5325703,-55
5325711,-221
5325718,-348
5325726,-438
5325734,-473
5325742,-444
5325750,-378
5325758,-307
5325765,-249
5325773,-206
5325781,-172
5325789,-132
5325797,-98
5325804,-88
5325812,-88
5325820,-71
5325828,-37
5325836,-22
5325843,-40
5325851,-53
5325859,-54
5325867,-61
5325875,-64
5325883,-38
5325890,-3
5325898,-20
5325906,-75
5325914,-84
5325922,-49
5325929,-26
5325937,-42
5325945,-59
5325953,-59
5325961,-54
5325968,-48
5325976,-49
5325984,-64
5325992,-71
5326000,-67
5326008,-54
5326015,-48
5326023,-49
5326031,-28
5326039,-1
5326047,-17
5326054,-82
5326062,-118
5326070,-85
5326078,-24
5326086,13
5326093,15
5326101,7
5326109,-1
5326117,-27
5326125,-60
5326133,-74
5326140,-74
5326148,-75
5326156,-89
5326164,-100
5326172,-60
5326179,17
5326187,-7
5326195,-299
5326203,-363
5326211,704
5326218,2413
5326226,2885
5326234,1191
5326242,-1235
5326250,-2283
5326258,-1653
5326265,-726
5326273,-452
5326281,-473
5326289,-329
5326297,-196
5326304,-165
5326312,-139
5326320,-105
5326328,-68
5326336,-45
5326343,-48
5326351,-46
5326359,-34
5326367,-21
5326375,4
5326383,35
5326390,58
5326398,65
5326406,65
5326414,76
5326422,92
5326429,106
5326437,119
5326445,132
5326453,142
5326461,153
5326468,159
5326476,137
5326484,46
5326492,-103
5326500,-260
5326508,-376
5326515,-433
5326523,-439
5326531,-404
5326539,-354
5326547,-308
5326554,-257
5326562,-202
5326570,-147
5326578,-102
5326586,-75
5326593,-56
5326601,-52
5326609,-48
5326617,-33
5326625,-25
5326633,-31
5326640,-53
5326648,-62
5326656,-46
5326664,-25
5326672,-25
5326679,-43
5326687,-47
5326695,-30
5326703,-27
5326711,-49
5326718,-73
5326726,-76
5326734,-62
5326742,-66
5326750,-76
5326758,-59
5326765,-25
5326773,-28
5326781,-63
5326789,-76
5326797,-48
5326804,-24
5326812,-46
5326820,-93
5326828,-101
5326836,-49
5326843,3
5326851,13
5326859,8
5326867,10
5326875,1
5326883,-48
5326890,-86
5326898,-93
5326906,-67
5326914,-54
5326922,-59
5326929,-64
5326937,-36
5326945,-1
5326953,-2
5326961,-177
5326968,-481
5326976,-95
5326984,1507
5326992,3021
5327000,2574
5327008,221
5327015,-1911
5327023,-2200
5327031,-1247
5327039,-552
5327047,-508
5327054,-487
5327062,-307
5327070,-199
5327078,-152
5327086,-116
5327093,-88
5327101,-56
5327109,-36
5327117,-37
5327125,-57
5327133,-60
5327140,-38
5327148,4
5327156,52
5327164,72
5327172,76
5327179,79
5327187,83
5327195,91
5327203,116
5327211,147
5327218,164
5327226,152
5327234,133
5327242,128
5327250,114
5327258,23
5327265,-143
5327273,-312
5327281,-421
5327289,-455
5327297,-432
5327304,-384
5327312,-319
5327320,-249
5327328,-205
5327336,-185
5327343,-169
5327351,-135
5327359,-90
5327367,-53
5327375,-44
5327383,-57
5327390,-75
5327398,-87
5327406,-87
5327414,-68
5327422,-47
5327429,-34
5327437,-30
5327445,-37
5327453,-37
5327461,-40
5327468,-50
5327476,-70
5327484,-76
5327492,-62
5327500,-45
5327508,-56
5327515,-81
5327523,-90
5327531,-73
5327539,-50
5327547,-48
5327554,-52
5327562,-51
5327570,-45
5327578,-47
5327586,-51
5327593,-62
5327601,-62
5327609,-32
5327617,-9
5327625,-30
5327633,-68
5327640,-87
5327648,-68
5327656,-40
5327664,-41
5327672,-50
5327679,-56
5327687,-61
5327695,-70
5327703,-75
5327711,-70
5327718,-47
5327726,-15
5327734,17
5327742,26
5327750,1
5327758,-58
5327765,-104
5327773,-100
5327781,-71
5327789,-47
5327797,-61
5327804,-88
5327812,-65
5327820,-3
5327828,-25
5327836,-308
5327843,-430
5327851,589
5327859,2462
5327867,3217
5327875,1633
5327883,-1006
5327890,-2393
5327898,-1909
5327906,-885
5327914,-493
5327922,-514
5327929,-417
5327937,-300
5327945,-234
5327953,-138
5327961,-64
5327968,-44
5327976,-43
5327984,-41
5327992,-17
5328000,-12
5328008,-34
5328015,-56
5328023,-44
5328031,-5
5328039,40
5328047,75
5328054,91
5328062,105
5328070,125
5328078,142
5328086,151
5328093,164
5328101,185
5328109,201
5328117,178
5328125,97
5328133,-17
5328140,-151
5328148,-285
5328156,-384
5328164,-435
5328172,-443
5328179,-414
5328187,-344
5328195,-263
5328203,-201
5328211,-165
5328218,-143
5328226,-123
5328234,-91
5328242,-56
5328250,-36
5328258,-46
5328265,-75
5328273,-80
5328281,-52
5328289,-36
5328297,-52
5328304,-62
5328312,-51
5328320,-28
5328328,-20
5328336,-36
5328343,-60
5328351,-66
5328359,-65
5328367,-67
5328375,-73
5328383,-74
5328390,-58
5328398,-36
5328406,-44
5328414,-66
5328422,-71
5328429,-74
5328437,-72
5328445,-53
5328453,-31
5328461,-29
5328468,-64
5328476,-95
5328484,-84
5328492,-48
5328500,-41
5328508,-70
5328515,-88
5328523,-66
5328531,-16
5328539,16
5328547,-2
5328554,-58
5328562,-92
5328570,-81
5328578,-56
5328586,-58
5328593,-83
5328601,-93
5328609,-61
5328617,-20
5328625,-7
5328633,1
5328640,21
5328648,38
5328656,15
5328664,-47
5328672,-106
5328679,-129
5328687,-112
5328695,-84
5328703,-71
5328711,-52
5328718,-11
5328726,16
5328734,-118
5328742,-444
5328750,-168
5328758,1339
5328765,2915
5328773,2661
5328781,427
5328789,-1779
5328797,-2234
5328804,-1360
5328812,-630
5328820,-545
5328828,-530
5328836,-349
5328843,-242
5328851,-172
5328859,-98
5328867,-58
5328875,-48
5328883,-64
5328890,-65
5328898,-44
5328906,-20
5328914,-10
5328922,4
5328929,25
5328937,30
5328945,19
5328953,34
5328961,76
5328968,111
5328976,111
5328984,109
5328992,147
5329000,205
5329008,211
5329015,163
5329023,93
5329031,17
5329039,-95
5329047,-250
5329054,-382
5329062,-436
5329070,-434
5329078,-420
5329086,-390
5329093,-320
5329101,-244
5329109,-206
5329117,-202
5329125,-185
5329133,-120
5329140,-56
5329148,-36
5329156,-43
5329164,-53
5329172,-63
5329179,-61
5329187,-33
5329195,-1
5329203,-9
5329211,-62
5329218,-107
5329226,-87
5329234,-30
5329242,-9
5329250,-23
5329258,-49
5329265,-60
5329273,-38
5329281,-20
5329289,-39
5329297,-86
5329304,-128
5329312,-120
5329320,-65
5329328,-15
5329336,-5
5329343,-26
5329351,-46
5329359,-52
5329367,-64
5329375,-63
5329383,-41
5329390,-20
5329398,-43
5329406,-87
5329414,-89
5329422,-52
5329429,-28
5329437,-51
5329445,-69
5329453,-46
5329461,-29
5329468,-51
5329476,-92
5329484,-98
5329492,-38
5329500,48
5329508,78
5329515,25
5329523,-54
5329531,-94
5329539,-93
5329547,-79
5329554,-75
5329562,-73
5329570,-71
5329578,-72
5329586,-40
5329593,16
5329601,-46
5329609,-358
5329617,-301
5329625,959
5329633,2639
5329640,2797
5329648,835
5329656,-1512
5329664,-2264
5329672,-1480
5329679,-628
5329687,-463
5329695,-484
5329703,-333
5329711,-218
5329718,-182
5329726,-155
5329734,-125
5329742,-82
5329750,-52
5329758,-35
5329765,-27
5329773,-17
5329781,-9
5329789,4
5329797,17
5329804,33
5329812,53
5329820,53
5329828,45
5329836,49
5329843,78
5329851,134
5329859,180
5329867,189
5329875,180
5329883,156
5329890,115
5329898,39
5329906,-74
5329914,-218
5329922,-353
5329929,-442
5329937,-471
5329945,-441
5329953,-375
5329961,-289
5329968,-224
5329976,-181
5329984,-169
5329992,-149
5330000,-113
5330008,-77
5330015,-59
5330023,-53
5330031,-52
5330039,-50
5330047,-55
5330054,-60
5330062,-53
5330070,-35
5330078,-27
5330086,-27
5330093,-24
5330101,-24
5330109,-28
5330117,-33
5330125,-47
5330133,-72
5330140,-100
5330148,-99
5330156,-68
5330164,-46
5330172,-57
5330179,-84
5330187,-79
5330195,-33
5330203,5
5330211,-13
5330218,-66
5330226,-95
5330234,-82
5330242,-56
5330250,-46
5330258,-43
5330265,-17
5330273,-2
5330281,-29
5330289,-71
5330297,-87
5330304,-88
5330312,-78
5330320,-60
5330328,-22
5330336,18
5330343,36
5330351,32
5330359,12
5330367,-32
5330375,-80
5330383,-100
5330390,-90
5330398,-62
5330406,-55
5330414,-67
5330422,-57
5330429,-6
5330437,-4
5330445,-238
5330453,-463
5330461,284
5330468,2041
5330476,3092
5330484,1939
5330492,-572
5330500,-2186
5330508,-1953
5330515,-957
5330523,-497
5330531,-538
5330539,-465
5330547,-299
5330554,-201
5330562,-130
5330570,-77
5330578,-38
5330586,-13
5330593,-33
5330601,-76
5330609,-94
5330617,-68
5330625,-36
5330633,-14
5330640,-4
5330648,17
5330656,55
5330664,85
5330672,104
5330679,117
5330687,128
5330695,143
5330703,150
5330711,149
5330718,136
5330726,116
5330734,68
5330742,-16
5330750,-133
5330758,-268
5330765,-400
5330773,-468
5330781,-462
5330789,-403
5330797,-332
5330804,-286
5330812,-252
5330820,-210
5330828,-149
5330836,-89
5330843,-48
5330851,-40
5330859,-53
5330867,-63
5330875,-58
5330883,-43
5330890,-20
5330898,-5
5330906,-10
5330914,-39
5330922,-66
5330929,-54
5330937,-22
5330945,-26
5330953,-77
5330961,-114
5330968,-82
5330976,-21
5330984,0
5330992,-27
5331000,-67
5331008,-73
5331015,-53
5331023,-33
5331031,-34
5331039,-66
5331047,-103
5331054,-102
5331062,-71
5331070,-41
5331078,-30
5331086,-31
5331093,-40
5331101,-37
5331109,-26
5331117,-14
5331125,-30
5331133,-71
5331140,-115
5331148,-101
5331156,-56
5331164,-31
5331172,-16
5331179,22
5331187,46
5331195,17
5331203,-59
5331211,-98
5331218,-87
5331226,-77
5331234,-83
5331242,-88
5331250,-74
5331258,-34
5331265,-2
5331273,-45
5331281,-319
5331289,-390
5331297,641
5331304,2399
5331312,3022
5331320,1431
5331328,-1067
5331336,-2300
5331343,-1785
5331351,-840
5331359,-526
5331367,-542
5331375,-395
5331383,-246
5331390,-186
5331398,-127
5331406,-73
5331414,-51
5331422,-74
5331429,-96
5331437,-72
5331445,-34
5331453,-12
5331461,-7
5331468,-4
5331476,7
5331484,34
5331492,67
5331500,94
5331508,100
5331515,99
5331523,118
5331531,163
5331539,182
5331547,161
5331554,133
5331562,109
5331570,70
5331578,-35
5331586,-207
5331593,-375
5331601,-459
5331609,-462
5331617,-425
5331625,-389
5331633,-340
5331640,-288
5331648,-232
5331656,-160
5331664,-92
5331672,-74
5331679,-111
5331687,-141
5331695,-107
5331703,-43
5331711,-13
5331718,-32
5331726,-43
5331734,-22
5331742,-9
5331750,-18
5331758,-32
5331765,-33
5331773,-21
5331781,-40
5331789,-85
5331797,-107
5331804,-84
5331812,-45
5331820,-39
5331828,-60
5331836,-68
5331843,-53
5331851,-34
5331859,-45
5331867,-68
5331875,-73
5331883,-49
5331890,-15
5331898,-18
5331906,-61
5331914,-102
5331922,-103
5331929,-67
5331937,-20
5331945,13
5331953,25
5331961,16
5331968,-9
5331976,-50
5331984,-92
5331992,-110
5332000,-92
5332008,-56
5332015,-42
5332023,-45
5332031,-12
5332039,47
5332047,6
5332054,-304
5332062,-432
5332070,565
5332078,2326
5332086,2955
5332093,1381
5332101,-1090
5332109,-2262
5332117,-1679
5332125,-714
5332133,-423
5332140,-481
5332148,-373
5332156,-243
5332164,-208
5332172,-158
5332179,-96
5332187,-26
5332195,11
5332203,-9
5332211,-43
5332218,-58
5332226,-42
5332234,-16
5332242,-5
5332250,15
5332258,54
5332265,88
5332273,91
5332281,76
5332289,92
5332297,136
5332304,165
5332312,163
5332320,157
5332328,157
5332336,132
5332343,36
5332351,-117
5332359,-284
5332367,-405
5332375,-465
5332383,-470
5332390,-429
5332398,-350
5332406,-280
5332414,-239
5332422,-218
5332429,-182
5332437,-141
5332445,-101
5332453,-77
5332461,-86
5332468,-91
5332476,-54
5332484,7
5332492,35
5332500,10
5332508,-45
5332515,-62
5332523,-41
5332531,-32
5332539,-40
5332547,-29
5332554,-29
5332562,-53
5332570,-68
5332578,-67
5332586,-61
5332593,-63
5332601,-60
5332609,-55
5332617,-51
5332625,-49
5332633,-44
5332640,-48
5332648,-74
5332656,-94
5332664,-80
5332672,-49
5332679,-29
5332687,-11
5332695,19
5332703,35
5332711,10
5332718,-37
5332726,-75
5332734,-88
5332742,-91
5332750,-72
5332758,-67
5332765,-72
5332773,-51
5332781,-6
5332789,-22
5332797,-293
5332804,-458
5332812,483
5332820,2320
5332828,3153
5332836,1683
5332843,-924
5332851,-2342
5332859,-1885
5332867,-863
5332875,-488
5332883,-528
5332890,-411
5332898,-258
5332906,-196
5332914,-144
5332922,-107
5332929,-84
5332937,-66
5332945,-59
5332953,-41
5332961,-22
5332968,-15
5332976,-19
5332984,-21
5332992,-12
5333000,16
5333008,51
5333015,76
5333023,89
5333031,107
5333039,140
5333047,178
5333054,188
5333062,159
5333070,115
5333078,79
5333086,25
5333093,-78
5333101,-220
5333109,-358
5333117,-430
5333125,-419
5333133,-367
5333140,-329
5333148,-304
5333156,-269
5333164,-223
5333172,-154
5333179,-91
5333187,-53
5333195,-60
5333203,-96
5333211,-98
5333218,-58
5333226,-29
5333234,-19
5333242,-1
5333250,17
5333258,-16
5333265,-71
5333273,-83
5333281,-39
5333289,19
5333297,31
5333304,-23
5333312,-90
5333320,-112
5333328,-71
5333336,-24
5333343,-34
5333351,-79
5333359,-85
5333367,-44
5333375,-22
5333383,-46
5333390,-62
5333398,-58
5333406,-57
5333414,-54
5333422,-27
5333429,12
5333437,27
5333445,-2
5333453,-40
5333461,-68
5333468,-74
5333476,-60
5333484,-41
5333492,-60
5333500,-90
5333508,-83
5333515,-35
5333523,-109
5333531,-400
5333539,-174
5333547,1298
5333554,2944
5333562,2782
5333570,532
5333578,-1795
5333586,-2330
5333593,-1407
5333601,-595
5333609,-513
5333617,-545
5333625,-376
5333633,-228
5333640,-138
5333648,-76
5333656,-68
5333664,-79
5333672,-93
5333679,-89
5333687,-65
5333695,-29
5333703,-4
5333711,6
5333718,4
5333726,22
5333734,71
5333742,102
5333750,83
5333758,50
5333765,71
5333773,133
5333781,178
5333789,193
5333797,169
5333804,127
5333812,60
5333820,-48
5333828,-184
5333836,-325
5333843,-433
5333851,-459
5333859,-416
5333867,-344
5333875,-297
5333883,-266
5333890,-229
5333898,-175
5333906,-129
5333914,-111
5333922,-115
5333929,-100
5333937,-72
5333945,-58
5333953,-53
5333961,-29
5333968,9
5333976,13
5333984,-15
5333992,-39
5334000,-48
5334008,-46
5334015,-42
5334023,-44
5334031,-54
5334039,-67
5334047,-75
5334054,-73
5334062,-66
5334070,-54
5334078,-40
5334086,-38
5334093,-49
5334101,-64
5334109,-61
5334117,-63
5334125,-74
5334133,-88
5334140,-81
5334148,-45
5334156,1
5334164,27
5334172,24
5334179,-3
5334187,-41
5334195,-67
5334203,-75
5334211,-82
5334218,-73
5334226,-66
5334234,-58
5334242,-29
5334250,16
5334258,-39
5334265,-349
5334273,-375
5334281,799
5334289,2599
5334297,3038
5334304,1226
5334312,-1277
5334320,-2315
5334328,-1658
5334336,-740
5334343,-503
5334351,-540
5334359,-389
5334367,-239
5334375,-175
5334383,-122
5334390,-89
5334398,-61
5334406,-39
5334414,-28
5334422,-26
5334429,-25
5334437,-17
5334445,-6
5334453,9
5334461,19
5334468,32
5334476,54
5334484,77
5334492,91
5334500,108
5334508,135
5334515,170
5334523,183
5334531,171
5334539,138
5334547,89
5334554,3
5334562,-127
5334570,-268
5334578,-385
5334586,-444
5334593,-446
5334601,-406
5334609,-339
5334617,-278
5334625,-232
5334633,-193
5334640,-160
5334648,-121
5334656,-91
5334664,-74
5334672,-66
5334679,-56
5334687,-51
5334695,-44
5334703,-43
5334711,-40
5334718,-37
5334726,-30
5334734,-28
5334742,-31
5334750,-44
5334758,-52
5334765,-56
5334773,-55
5334781,-61
5334789,-62
5334797,-58
5334804,-54
5334812,-53
5334820,-57
5334828,-60
5334836,-59
5334843,-55
5334851,-50
5334859,-46
5334867,-55
5334875,-67
5334883,-76
5334890,-67
5334898,-41
5334906,-2
5334914,32
5334922,38
5334929,10
5334937,-38
5334945,-81
5334953,-86
5334961,-78
5334968,-65
5334976,-75
5334984,-85
5334992,-50
5335000,8
5335008,-47
5335015,-343
5335023,-340
5335031,824
5335039,2519
5335047,2840
5335054,1033
5335062,-1346
5335070,-2260
5335078,-1569
5335086,-673
5335093,-447
5335101,-482
5335109,-356
5335117,-235
5335125,-179
5335133,-113
5335140,-75
5335148,-50
5335156,-48
5335164,-52
5335172,-39
5335179,-21
5335187,-12
5335195,-1
5335203,10
5335211,32
5335218,52
5335226,63
5335234,68
5335242,79
5335250,112
5335258,159
5335265,188
5335273,179
5335281,156
5335289,131
5335297,86
5335304,-4
5335312,-150
5335320,-304
5335328,-415
5335336,-451
5335343,-438
5335351,-399
5335359,-352
5335367,-298
5335375,-242
5335383,-195
5335390,-150
5335398,-114
5335406,-95
5335414,-90
5335422,-83
5335429,-71
5335437,-59
5335445,-55
5335453,-43
5335461,-37
5335468,-31
5335476,-39
5335484,-47
5335492,-49
5335500,-56
5335508,-70
5335515,-71
5335523,-57
5335531,-37
5335539,-41
5335547,-60
5335554,-68
5335562,-66
5335570,-60
5335578,-57
5335586,-55
5335593,-55
5335601,-61
5335609,-65
5335617,-63
5335625,-52
5335633,-27
5335640,-2
5335648,18
5335656,9
5335664,-33
5335672,-76
5335679,-100
5335687,-96
5335695,-73
5335703,-61
5335711,-72
5335718,-69
5335726,-21
5335734,22
5335742,-137
5335750,-422
5335758,41
5335765,1648
5335773,2965
5335781,2267
5335789,-125
5335797,-2051
5335804,-2129
5335812,-1122
5335820,-468
5335828,-438
5335836,-424
5335843,-288
5335851,-208
5335859,-141
5335867,-87
5335875,-61
5335883,-37
5335890,-25
5335898,-22
5335906,-17
5335914,-5
5335922,4
5335929,7
5335937,16
5335945,31
5335953,53
5335961,76
5335968,102
5335976,132
5335984,157
5335992,174
5336000,174
5336008,158
5336015,138
5336023,96
5336031,14
5336039,-123
5336047,-284
5336054,-420
5336062,-483
5336070,-470
5336078,-424
5336086,-375
5336093,-319
5336101,-256
5336109,-199
5336117,-159
5336125,-128
5336133,-97
5336140,-74
5336148,-69
5336156,-65
5336164,-47
5336172,-20
5336179,-11
5336187,-17
5336195,-28
5336203,-33
5336211,-34
5336218,-33
5336226,-41
5336234,-51
5336242,-57
5336250,-52
5336258,-54
5336265,-63
5336273,-67
5336281,-55
5336289,-54
5336297,-71
5336304,-92
5336312,-80
5336320,-43
5336328,-3
5336336,17
5336343,12
5336351,-23
5336359,-62
5336367,-84
5336375,-77
5336383,-68
5336390,-60
5336398,-71
5336406,-92
5336414,-72
5336422,-9
5336429,-3
5336437,-259
5336445,-427
5336453,469
5336461,2251
5336468,3074
5336476,1657
5336484,-884
5336492,-2286
5336500,-1858
5336508,-855
5336515,-455
5336523,-483
5336531,-392
5336539,-248
5336547,-180
5336554,-118
5336562,-80
5336570,-62
5336578,-51
5336586,-40
5336593,-23
5336601,-5
5336609,0
5336617,-8
5336625,-15
5336633,-7
5336640,23
5336648,71
5336656,119
5336664,147
5336672,160
5336679,165
5336687,170
5336695,162
5336703,143
5336711,119
5336718,73
5336726,-32
5336734,-197
5336742,-356
5336750,-453
5336758,-469
5336765,-441
5336773,-389
5336781,-322
5336789,-258
5336797,-218
5336804,-190
5336812,-161
5336820,-130
5336828,-100
5336836,-70
5336843,-45
5336851,-29
5336859,-23
5336867,-23
5336875,-11
5336883,-4
5336890,-10
5336898,-31
5336906,-38
5336914,-34
5336922,-50
5336929,-66
5336937,-63
5336945,-49
5336953,-51
5336961,-66
5336968,-70
5336976,-50
5336984,-33
5336992,-42
5337000,-68
5337008,-87
5337015,-88
5337023,-73
5337031,-44
5337039,-4
5337047,26
5337054,27
5337062,-1
5337070,-45
5337078,-77
5337086,-82
5337093,-79
5337101,-74
5337109,-74
5337117,-83
5337125,-62
5337133,-5
5337140,11
5337148,-214
5337156,-477
5337164,169
5337172,1927
5337179,3147
5337187,2178
5337195,-360
5337203,-2174
5337211,-2082
5337218,-1064
5337226,-512
5337234,-514
5337242,-451
5337250,-285
5337258,-198
5337265,-138
5337273,-98
5337281,-85
5337289,-59
5337297,-34
5337304,-16
5337312,-8
5337320,-3
5337328,8
5337336,17
5337343,21
5337351,28
5337359,50
5337367,75
5337375,105
5337383,127
5337390,145
5337398,168
5337406,182
5337414,178
5337422,160
5337429,107
5337437,15
5337445,-135
5337453,-297
5337461,-420
5337468,-471
5337476,-456
5337484,-409
5337492,-360
5337500,-306
5337508,-238
5337515,-174
5337523,-133
5337531,-114
5337539,-107
5337547,-90
5337554,-64
5337562,-47
5337570,-36
5337578,-28
5337586,-23
5337593,-21
5337601,-26
5337609,-35
5337617,-37
5337625,-38
5337633,-39
5337640,-41
5337648,-43
5337656,-49
5337664,-57
5337672,-61
5337679,-64
5337687,-70
5337695,-70
5337703,-69
5337711,-59
5337718,-53
5337726,-57
5337734,-62
5337742,-75
5337750,-87
5337758,-89
5337765,-70
5337773,-31
5337781,15
5337789,40
5337797,25
5337804,-19
5337812,-61
5337820,-82
5337828,-87
5337836,-82
5337843,-75
5337851,-78
5337859,-77
5337867,-31
5337875,22
5337883,-56
5337890,-382
5337898,-365
5337906,881
5337914,2692
5337922,3051
5337929,1148
5337937,-1371
5337945,-2370
5337953,-1671
5337961,-731
5337968,-484
5337976,-520
5337984,-386
5337992,-247
5338000,-170
5338008,-114
5338015,-88
5338023,-78
5338031,-58
5338039,-27
5338047,-5
5338054,-1
5338062,-8
5338070,-8
5338078,5
5338086,27
5338093,54
5338101,71
5338109,90
5338117,115
5338125,143
5338133,170
5338140,190
5338148,197
5338156,184
5338164,142
5338172,82
5338179,-22
5338187,-167
5338195,-324
5338203,-439
5338211,-482
5338218,-467
5338226,-414
5338234,-337
5338242,-261
5338250,-206
5338258,-168
5338265,-139
5338273,-113
5338281,-94
5338289,-75
5338297,-57
5338304,-50
5338312,-48
5338320,-47
5338328,-40
5338336,-29
5338343,-30
5338351,-27
5338359,-21
5338367,-19
5338375,-31
5338383,-45
5338390,-54
5338398,-57
5338406,-62
5338414,-60
5338422,-57
5338429,-52
5338437,-54
5338445,-55
5338453,-48
5338461,-48
5338468,-56
5338476,-61
5338484,-58
5338492,-43
5338500,-38
5338508,-43
5338515,-51
5338523,-52
5338531,-45
5338539,-40
5338547,-43
5338554,-51
5338562,-63
5338570,-67
5338578,-59
5338586,-38
5338593,1
5338601,31
5338609,31
5338617,-4
5338625,-53
5338633,-75
5338640,-77
5338648,-77
5338656,-73
5338664,-72
5338672,-77
5338679,-51
5338687,-3
5338695,-1
5338703,-218
5338711,-477
5338718,135
5338726,1851
5338734,3103
5338742,2228
5338750,-250
5338758,-2107
5338765,-2104
5338773,-1109
5338781,-533
5338789,-528
5338797,-469
5338804,-292
5338812,-192
5338820,-136
5338828,-105
5338836,-87
5338843,-63
5338851,-47
5338859,-39
5338867,-28
5338875,-16
5338883,-7
5338890,7
5338898,24
5338906,41
5338914,50
5338922,68
5338929,100
5338937,130
5338945,152
5338953,169
5338961,183
5338968,185
5338976,176
5338984,141
5338992,73
5339000,-50
5339008,-214
5339015,-372
5339023,-465
5339031,-473
5339039,-429
5339047,-379
5339054,-324
5339062,-264
5339070,-207
5339078,-179
5339086,-177
5339093,-148
5339101,-90
5339109,-34
5339117,-11
5339125,-20
5339133,-40
5339140,-60
5339148,-58
5339156,-56
5339164,-66
5339172,-81
5339179,-72
5339187,-39
5339195,-14
5339203,-23
5339211,-39
5339218,-47
5339226,-45
5339234,-56
5339242,-66
5339250,-66
5339258,-63
5339265,-69
5339273,-69
5339281,-59
5339289,-48
5339297,-55
5339304,-67
5339312,-58
5339320,-39
5339328,-24
5339336,-39
5339343,-63
5339351,-67
5339359,-52
5339367,-43
5339375,-41
5339383,-45
5339390,-44
5339398,-41
5339406,-45
5339414,-51
5339422,-53
5339429,-47
5339437,-41
5339445,-37
5339453,-53
5339461,-89
5339468,-106
5339476,-71
5339484,-3
5339492,48
5339500,57
5339508,17
5339515,-35
5339523,-86
5339531,-120
5339539,-122
5339547,-95
5339554,-46
5339562,-19
5339570,-31
5339578,-25
5339586,-2
5339593,-61
5339601,-355
5339609,-382
5339617,741
5339625,2482
5339633,2942
5339640,1218
5339648,-1217
5339656,-2266
5339664,-1650
5339672,-725
5339679,-460
5339687,-505
5339695,-397
5339703,-267
5339711,-189
5339718,-116
5339726,-83
5339734,-71
5339742,-66
5339750,-48
5339758,-20
5339765,-5
5339773,-7
5339781,-15
5339789,3
5339797,32
5339804,58
5339812,67
5339820,62
5339828,71
5339836,100
5339843,137
5339851,171
5339859,194
5339867,197
5339875,174
5339883,128
5339890,58
5339898,-50
5339906,-207
5339914,-373
5339922,-477
5339929,-491
5339937,-456
5339945,-420
5339953,-365
5339961,-282
5339968,-196
5339976,-139
5339984,-116
5339992,-107
5340000,-115
5340008,-104
5340015,-69
5340023,-39
5340031,-44
5340039,-63
5340047,-51
5340054,-15
5340062,-4
5340070,-34
5340078,-65
5340086,-63
5340093,-48
5340101,-50
5340109,-45
5340117,-44
5340125,-57
5340133,-71
5340140,-69
5340148,-47
5340156,-23
5340164,-28
5340172,-45
5340179,-65
5340187,-79
5340195,-74
5340203,-48
5340211,-34
5340218,-43
5340226,-66
5340234,-60
5340242,-33
5340250,-27
5340258,-50
5340265,-77
5340273,-77
5340281,-68
5340289,-40
5340297,-2
5340304,27
5340312,27
5340320,-12
5340328,-59
5340336,-84
5340343,-90
5340351,-83
5340359,-69
5340367,-75
5340375,-88
5340383,-50
5340390,18
5340398,-44
5340406,-347
5340414,-263
5340422,988
5340429,2631
5340437,2766
5340445,827
5340453,-1487
5340461,-2243
5340468,-1486
5340476,-633
5340484,-459
5340492,-497
5340500,-348
5340508,-213
5340515,-149
5340523,-114
5340531,-97
5340539,-67
5340547,-36
5340554,-32
5340562,-46
5340570,-33
5340578,-6
5340586,-2
5340593,-9
5340601,6
5340609,50
5340617,90
5340625,110
5340633,123
5340640,138
5340648,152
5340656,163
5340664,168
5340672,170
5340679,149
5340687,88
5340695,-15
5340703,-159
5340711,-313
5340718,-428
5340726,-481
5340734,-467
5340742,-423
5340750,-364
5340758,-306
5340765,-259
5340773,-224
5340781,-178
5340789,-127
5340797,-85
5340804,-70
5340812,-63
5340820,-53
5340828,-34
5340836,-35
5340843,-46
5340851,-49
5340859,-37
5340867,-23
5340875,-12
5340883,-17
5340890,-29
5340898,-29
5340906,-31
5340914,-47
5340922,-79
5340929,-89
5340937,-67
5340945,-46
5340953,-61
5340961,-84
5340968,-72
5340976,-32
5340984,-17
5340992,-40
5341000,-67
5341008,-60
5341015,-51
5341023,-61
5341031,-79
5341039,-75
5341047,-37
5341054,-6
5341062,-33
5341070,-81
5341078,-100
5341086,-86
5341093,-59
5341101,-40
5341109,-31
5341117,-15
5341125,3
5341133,10
5341140,-12
5341148,-53
5341156,-79
5341164,-84
5341172,-80
5341179,-80
5341187,-81
5341195,-80
5341203,-48
5341211,-5
5341218,-54
5341226,-334
5341234,-418
5341242,588
5341250,2359
5341258,3038
5341265,1512
5341273,-975
5341281,-2264
5341289,-1807
5341297,-853
5341304,-485
5341312,-479
5341320,-378
5341328,-259
5341336,-202
5341343,-136
5341351,-105
5341359,-96
5341367,-77
5341375,-39
5341383,-5
5341390,3
5341398,-9
5341406,-3
5341414,9
5341422,-1
5341429,-12
5341437,24
5341445,83
5341453,135
5341461,146
5341468,154
5341476,185
5341484,211
5341492,206
5341500,170
5341508,123
5341515,49
5341523,-103
5341531,-288
5341539,-426
5341547,-477
5341554,-453
5341562,-408
5341570,-370
5341578,-320
5341586,-260
5341593,-230
5341601,-219
5341609,-178
5341617,-111
5341625,-61
5341633,-43
5341640,-56
5341648,-58
5341656,-33
5341664,-17
5341672,-15
5341679,-19
5341687,-32
5341695,-62
5341703,-77
5341711,-58
5341718,-18
5341726,3
5341734,-8
5341742,-40
5341750,-65
5341758,-66
5341765,-64
5341773,-70
5341781,-80
5341789,-79
5341797,-65
5341804,-56
5341812,-55
5341820,-45
5341828,-33
5341836,-43
5341843,-69
5341851,-60
5341859,-27
5341867,-18
5341875,-35
5341883,-69
5341890,-78
5341898,-69
5341906,-71
5341914,-79
5341922,-68
5341929,-13
5341937,43
5341945,56
5341953,5
5341961,-57
5341968,-83
5341976,-94
5341984,-131
5341992,-132
5342000,-84
5342008,-45
5342015,-31
5342023,-14
5342031,1
5342039,-152
5342047,-440
5342054,-7
5342062,1572
5342070,2942
5342078,2339
5342086,-7
5342093,-1961
5342101,-2094
5342109,-1121
5342117,-499
5342125,-513
5342133,-506
5342140,-334
5342148,-233
5342156,-176
5342164,-129
5342172,-80
5342179,-40
5342187,-41
5342195,-46
5342203,-27
5342211,-18
5342218,-24
5342226,-22
5342234,9
5342242,42
5342250,65
5342258,73
5342265,79
5342273,93
5342281,111
5342289,135
5342297,171
5342304,198
5342312,217
5342320,201
5342328,120
5342336,-30
5342343,-200
5342351,-352
5342359,-461
5342367,-507
5342375,-478
5342383,-408
5342390,-332
5342398,-279
5342406,-241
5342414,-196
5342422,-159
5342429,-133
5342437,-102
5342445,-78
5342453,-74
5342461,-76
5342468,-53
5342476,-1
5342484,28
5342492,15
5342500,-20
5342508,-43
5342515,-63
5342523,-79
5342531,-67
5342539,-39
5342547,-28
5342554,-36
5342562,-54
5342570,-53
5342578,-55
5342586,-67
5342593,-67
5342601,-49
5342609,-32
5342617,-37
5342625,-57
5342633,-80
5342640,-98
5342648,-87
5342656,-66
5342664,-52
5342672,-43
5342679,-41
5342687,-42
5342695,-40
5342703,-39
5342711,-53
5342718,-67
5342726,-74
5342734,-75
5342742,-66
5342750,-35
5342758,-9
5342765,10
5342773,19
5342781,-12
5342789,-73
5342797,-103
5342804,-96
5342812,-59
5342820,-44
5342828,-74
5342836,-81
5342843,-38
5342851,-46
5342859,-291
5342867,-446
5342875,409
5342883,2143
5342890,3022
5342898,1745
5342906,-717
5342914,-2191
5342922,-1896
5342929,-924
5342937,-463
5342945,-461
5342953,-396
5342961,-280
5342968,-209
5342976,-137
5342984,-116
5342992,-119
5343000,-84
5343008,-22
5343015,15
5343023,4
5343031,-13
5343039,-13
5343047,-10
5343054,-6
5343062,18
5343070,62
5343078,95
5343086,100
5343093,117
5343101,161
5343109,202
5343117,205
5343125,181
5343133,151
5343140,109
5343148,56
5343156,-31
5343164,-181
5343172,-350
5343179,-473
5343187,-500
5343195,-458
5343203,-420
5343211,-382
5343218,-314
5343226,-230
5343234,-167
5343242,-128
5343250,-101
5343258,-82
5343265,-71
5343273,-63
5343281,-42
5343289,-12
5343297,-10
5343304,-34
5343312,-55
5343320,-59
5343328,-56
5343336,-47
5343343,-32
5343351,-22
5343359,-23
5343367,-31
5343375,-37
5343383,-46
5343390,-55
5343398,-70
5343406,-83
5343414,-72
5343422,-62
5343429,-70
5343437,-76
5343445,-61
5343453,-19
5343461,-10
5343468,-55
5343476,-105
5343484,-89
5343492,-26
5343500,8
5343508,-19
5343515,-76
5343523,-112
5343531,-90
5343539,-34
5343547,11
5343554,21
5343562,-10
5343570,-28
5343578,-32
5343586,-59
5343593,-93
5343601,-100
5343609,-73
5343617,-57
5343625,-71
5343633,-53
5343640,2
5343648,-22
5343656,-313
5343664,-467
5343672,478
5343679,2255
5343687,3019
5343695,1590
5343703,-877
5343711,-2197
5343718,-1776
5343726,-836
5343734,-488
5343742,-525
5343750,-424
5343758,-271
5343765,-175
5343773,-101
5343781,-75
5343789,-70
5343797,-57
5343804,-50
5343812,-35
5343820,-18
5343828,-12
5343836,-15
5343843,-2
5343851,40
5343859,75
5343867,89
5343875,92
5343883,104
5343890,139
5343898,166
5343906,181
5343914,192
5343922,194
5343929,180
5343937,149
5343945,65
5343953,-77
5343961,-251
5343968,-397
5343976,-493
5343984,-522
5343992,-483
5344000,-405
5344008,-321
5344015,-256
5344023,-212
5344031,-162
5344039,-122
5344047,-108
5344054,-102
5344062,-79
5344070,-59
5344078,-54
5344086,-57
5344093,-51
5344101,-31
5344109,-9
5344117,-4
5344125,-18
5344133,-31
5344140,-37
5344148,-39
5344156,-47
5344164,-67
5344172,-80
5344179,-70
5344187,-37
5344195,-10
5344203,-23
5344211,-57
5344218,-76
5344226,-67
5344234,-46
5344242,-41
5344250,-45
5344258,-53
5344265,-66
5344273,-73
5344281,-63
5344289,-46
5344297,-42
5344304,-58
5344312,-70
5344320,-52
5344328,-10
5344336,21
5344343,21
5344351,6
5344359,-28
5344367,-66
5344375,-89
5344383,-93
5344390,-73
5344398,-68
5344406,-83
5344414,-60
5344422,-2
5344429,0
5344437,-240
5344445,-490
5344453,197
5344461,1929
5344468,3053
5344476,2025
5344484,-457
5344492,-2148
5344500,-1999
5344508,-1022
5344515,-519
5344523,-510
5344531,-404
5344539,-221
5344547,-168
5344554,-160
5344562,-130
5344570,-75
5344578,-53
5344586,-70
5344593,-66
5344601,-9
5344609,51
5344617,57
5344625,23
5344633,12
5344640,39
5344648,59
5344656,65
5344664,78
5344672,122
5344679,174
5344687,209
5344695,198
5344703,176
5344711,173
5344718,181
5344726,123
5344734,-32
5344742,-252
5344750,-432
5344758,-523
5344765,-554
5344773,-538
5344781,-456
5344789,-324
5344797,-211
5344804,-175
5344812,-177
5344820,-157
5344828,-127
5344836,-120
5344843,-119
5344851,-81
5344859,-26
5344867,6
5344875,8
5344883,-16
5344890,-39
5344898,-44
5344906,-37
5344914,-36
5344922,-43
5344929,-57
5344937,-61
5344945,-50
5344953,-37
5344961,-29
5344968,-38
5344976,-58
5344984,-78
5344992,-87
5345000,-75
5345008,-73
5345015,-72
5345023,-58
5345031,-35
5345039,-26
5345047,-31
5345054,-36
5345062,-66
5345070,-101
5345078,-98
5345086,-68
5345093,-37
5345101,-24
5345109,-19
5345117,0
5345125,7
5345133,-16
5345140,-56
5345148,-80
5345156,-93
5345164,-93
5345172,-79
5345179,-76
5345187,-61
5345195,-18
5345203,-18
5345211,-246
5345218,-444
5345226,307
5345234,2016
5345242,3006
5345250,1865
5345258,-584
5345265,-2145
5345273,-1914
5345281,-954
5345289,-487
5345297,-482
5345304,-398
5345312,-258
5345320,-193
5345328,-133
5345336,-81
5345343,-59
5345351,-47
5345359,-45
5345367,-39
5345375,-35
5345383,-37
5345390,-26
5345398,10
5345406,36
5345414,26
5345422,13
5345429,45
5345437,119
5345445,180
5345453,204
5345461,196
5345468,192
5345476,188
5345484,170
5345492,133
5345500,50
5345508,-95
5345515,-269
5345523,-417
5345531,-496
5345539,-497
5345547,-455
5345554,-410
5345562,-356
5345570,-278
5345578,-184
5345586,-118
5345593,-99
5345601,-109
5345609,-101
5345617,-82
5345625,-67
5345633,-55
5345640,-44
5345648,-40
5345656,-45
5345664,-42
5345672,-26
5345679,-12
5345687,-17
5345695,-29
5345703,-37
5345711,-36
5345718,-39
5345726,-51
5345734,-60
5345742,-62
5345750,-58
5345758,-66
5345765,-82
5345773,-93
5345781,-77
5345789,-42
5345797,-10
5345804,-14
5345812,-37
5345820,-57
5345828,-63
5345836,-59
5345843,-56
5345851,-56
5345859,-62
5345867,-76
5345875,-83
5345883,-74
5345890,-53
5345898,-14
5345906,22
5345914,37
5345922,9
5345929,-37
5345937,-76
5345945,-87
5345953,-84
5345961,-74
5345968,-69
5345976,-74
5345984,-59
5345992,-7
5346000,-1
5346008,-226
5346015,-469
5346023,210
5346031,1954
5346039,3114
5346047,2104
5346054,-413
5346062,-2177
5346070,-2056
5346078,-1040
5346086,-498
5346093,-505
5346101,-451
5346109,-304
5346117,-220
5346125,-156
5346133,-104
5346140,-76
5346148,-56
5346156,-45
5346164,-33
5346172,-27
5346179,-21
5346187,-13
5346195,3
5346203,17
5346211,30
5346218,46
5346226,67
5346234,96
5346242,128
5346250,159
5346258,190
5346265,206
5346273,210
5346281,197
5346289,150
5346297,65
5346304,-70
5346312,-236
5346320,-391
5346328,-487
5346336,-511
5346343,-468
5346351,-403
5346359,-335
5346367,-276
5346375,-221
5346383,-175
5346390,-135
5346398,-107
5346406,-90
5346414,-76
5346422,-52
5346429,-38
5346437,-42
5346445,-57
5346453,-54
5346461,-35
5346468,-16
5346476,-17
5346484,-31
5346492,-44
5346500,-53
5346508,-51
5346515,-41
5346523,-37
5346531,-47
5346539,-60
5346547,-69
5346554,-68
5346562,-64
5346570,-58
5346578,-54
5346586,-53
5346593,-52
5346601,-54
5346609,-55
5346617,-56
5346625,-57
5346633,-61
5346640,-60
5346648,-55
5346656,-46
5346664,-44
5346672,-48
5346679,-50
5346687,-61
5346695,-73
5346703,-78
5346711,-69
5346718,-40
5346726,-15
5346734,5
5346742,18
5346750,18
5346758,-4
5346765,-46
5346773,-80
5346781,-97
5346789,-95
5346797,-78
5346804,-77
5346812,-66
5346820,-18
5346828,25
5346836,-71
5346843,-396
5346851,-329
5346859,944
5346867,2671
5346875,2909
5346883,985
5346890,-1419
5346898,-2293
5346906,-1579
5346914,-701
5346922,-498
5346929,-522
5346937,-367
5346945,-228
5346953,-163
5346961,-121
5346968,-96
5346976,-73
5346984,-49
5346992,-27
5347000,-13
5347008,-13
5347015,-12
5347023,-9
5347031,7
5347039,27
5347047,50
5347054,70
5347062,93
5347070,117
5347078,141
5347086,169
5347093,199
5347101,216
5347109,213
5347117,187
5347125,130
5347133,29
5347140,-122
5347148,-294
5347156,-436
5347164,-507
5347172,-512
5347179,-460
5347187,-391
5347195,-313
5347203,-250
5347211,-205
5347218,-171
5347226,-139
5347234,-111
5347242,-86
5347250,-66
5347258,-55
5347265,-54
5347273,-51
5347281,-46
5347289,-37
5347297,-33
5347304,-35
5347312,-38
5347320,-37
5347328,-32
5347336,-28
5347343,-33
5347351,-42
5347359,-51
5347367,-62
5347375,-68
5347383,-64
5347390,-61
5347398,-64
5347406,-73
5347414,-71
5347422,-55
5347429,-36
5347437,-35
5347445,-46
5347453,-48
5347461,-49
5347468,-50
5347476,-50
5347484,-51
5347492,-53
5347500,-56
5347508,-64
5347515,-69
5347523,-70
5347531,-52
5347539,-31
5347547,-36
5347554,-64
5347562,-87
5347570,-79
5347578,-47
5347586,-8
5347593,22
5347601,25
5347609,1
5347617,-44
5347625,-78
5347633,-80
5347640,-80
5347648,-78
5347656,-75
5347664,-77
5347672,-56
5347679,-13
5347687,-14
5347695,-218
5347703,-446
5347711,203
5347718,1892
5347726,3037
5347734,2073
5347742,-385
5347750,-2134
5347758,-2033
5347765,-1040
5347773,-499
5347781,-499
5347789,-437
5347797,-269
5347804,-189
5347812,-140
5347820,-107
5347828,-83
5347836,-62
5347843,-51
5347851,-42
5347859,-33
5347867,-23
5347875,-14
5347883,-4
5347890,22
5347898,54
5347906,72
5347914,77
5347922,89
5347929,119
5347937,154
5347945,181
5347953,203
5347961,213
5347968,205
5347976,172
5347984,94
5347992,-30
5348000,-190
5348008,-349
5348015,-456
5348023,-496
5348031,-487
5348039,-446
5348047,-382
5348054,-304
5348062,-231
5348070,-180
5348078,-148
5348086,-111
5348093,-74
5348101,-61
5348109,-66
5348117,-76
5348125,-66
5348133,-52
5348140,-34
5348148,-32
5348156,-32
5348164,-38
5348172,-41
5348179,-40
5348187,-40
5348195,-44
5348203,-49
5348211,-53
5348218,-53
5348226,-62
5348234,-65
5348242,-61
5348250,-58
5348258,-56
5348265,-60
5348273,-66
5348281,-70
5348289,-59
5348297,-52
5348304,-65
5348312,-64
5348320,-39
5348328,-21
5348336,-49
5348343,-92
5348351,-96
5348359,-59
5348367,-30
5348375,-36
5348383,-47
5348390,-43
5348398,-42
5348406,-52
5348414,-55
5348422,-49
5348429,-45
5348437,-57
5348445,-76
5348453,-88
5348461,-75
5348468,-53
5348476,-22
5348484,5
5348492,28
5348500,30
5348508,-2
5348515,-49
5348523,-89
5348531,-104
5348539,-90
5348547,-75
5348554,-82
5348562,-87
5348570,-45
5348578,13
5348586,-43
5348593,-337
5348601,-356
5348609,759
5348617,2497
5348625,2958
5348633,1251
5348640,-1198
5348648,-2278
5348656,-1685
5348664,-758
5348672,-485
5348679,-515
5348687,-387
5348695,-242
5348703,-183
5348711,-132
5348718,-105
5348726,-89
5348734,-64
5348742,-30
5348750,2
5348758,10
5348765,-3
5348773,-10
5348781,4
5348789,23
5348797,36
5348804,54
5348812,75
5348820,97
5348828,125
5348836,154
5348843,174
5348851,190
5348859,208
5348867,204
5348875,160
5348883,65
5348890,-85
5348898,-259
5348906,-406
5348914,-484
5348922,-491
5348929,-461
5348937,-423
5348945,-374
5348953,-311
5348961,-249
5348968,-202
5348976,-152
5348984,-117
5348992,-92
5349000,-82
5349008,-76
5349015,-69
5349023,-50
5349031,-27
5349039,-8
5349047,-7
5349054,-17
5349062,-26
5349070,-40
5349078,-55
5349086,-69
5349093,-61
5349101,-36
5349109,-26
5349117,-35
5349125,-45
5349133,-46
5349140,-46
5349148,-52
5349156,-50
5349164,-49
5349172,-61
5349179,-76
5349187,-77
5349195,-57
5349203,-43
5349211,-45
5349218,-51
5349226,-51
5349234,-45
5349242,-40
5349250,-40
5349258,-45
5349265,-56
5349273,-66
5349281,-73
5349289,-74
5349297,-56
5349304,-25
5349312,10
5349320,19
5349328,9
5349336,-8
5349343,-38
5349351,-72
5349359,-97
5349367,-102
5349375,-75
5349383,-52
5349390,-58
5349398,-52
5349406,-8
5349414,-10
5349422,-242
5349429,-440
5349437,325
5349445,2015
5349453,2954
5349461,1774
5349468,-645
5349476,-2141
5349484,-1863
5349492,-889
5349500,-441
5349508,-469
5349515,-406
5349523,-271
5349531,-202
5349539,-130
5349547,-86
5349554,-66
5349562,-58
5349570,-52
5349578,-37
5349586,-14
5349593,6
5349601,18
5349609,31
5349617,51
5349625,60
5349633,72
5349640,80
5349648,92
5349656,118
5349664,147
5349672,184
5349679,216
5349687,228
5349695,217
5349703,169
5349711,78
5349718,-75
5349726,-263
5349734,-433
5349742,-532
5349750,-553
5349758,-503
5349765,-426
5349773,-340
5349781,-274
5349789,-218
5349797,-171
5349804,-136
5349812,-110
5349820,-94
5349828,-84
5349836,-67
5349843,-57
5349851,-46
5349859,-37
5349867,-25
5349875,-1
5349883,15
5349890,7
5349898,-22
5349906,-38
5349914,-35
5349922,-31
5349929,-45
5349937,-71
5349945,-86
5349953,-73
5349961,-62
5349968,-49
5349976,-41
5349984,-40
5349992,-52
5350000,-64
5350008,-68
5350015,-58
5350023,-48
5350031,-52
5350039,-66
5350047,-71
5350054,-53
5350062,-35
5350070,-36
5350078,-53
5350086,-69
5350093,-76
5350101,-76
5350109,-64
5350117,-39
5350125,-10
5350133,11
5350140,13
5350148,4
5350156,-12
5350164,-45
5350172,-76
5350179,-102
5350187,-108
5350195,-88
5350203,-74
5350211,-73
5350218,-37
5350226,12
5350234,-52
5350242,-353
5350250,-277
5350258,982
5350265,2655
5350273,2819
5350281,871
5350289,-1485
5350297,-2272
5350304,-1508
5350312,-638
5350320,-456
5350328,-504
5350336,-381
5350343,-252
5350351,-177
5350359,-121
5350367,-103
5350375,-92
5350383,-62
5350390,-24
5350398,2
5350406,-3
5350414,-14
5350422,-8
5350429,15
5350437,34
5350445,32
5350453,38
5350461,78
5350468,130
5350476,172
5350484,194
5350492,214
5350500,222
5350508,213
5350515,188
5350523,127
5350531,25
5350539,-130
5350547,-321
5350554,-485
5350562,-558
5350570,-520
5350578,-433
5350586,-366
5350593,-316
5350601,-266
5350609,-208
5350617,-165
5350625,-133
5350633,-91
5350640,-73
5350648,-99
5350656,-115
5350664,-71
5350672,6
5350679,42
5350687,22
5350695,-21
5350703,-36
5350711,-34
5350718,-33
5350726,-50
5350734,-63
5350742,-71
5350750,-64
5350758,-61
5350765,-70
5350773,-78
5350781,-68
5350789,-60
5350797,-67
5350804,-75
5350812,-64
5350820,-44
5350828,-50
5350836,-63
5350843,-61
5350851,-37
5350859,-33
5350867,-68
5350875,-92
5350883,-74
5350890,-29
5350898,4
5350906,-13
5350914,-57
5350922,-84
5350929,-69
5350937,-36
5350945,-10
5350953,-3
5350961,-4
5350968,-25
5350976,-59
5350984,-89
5350992,-91
5351000,-77
5351008,-59
5351015,-65
5351023,-76
5351031,-45
5351039,6
5351047,-68
5351054,-363
5351062,-265
5351070,1015
5351078,2689
5351086,2829
5351093,867
5351101,-1478
5351109,-2267
5351117,-1535
5351125,-703
5351133,-510
5351140,-491
5351148,-323
5351156,-209
5351164,-172
5351172,-132
5351179,-96
5351187,-69
5351195,-54
5351203,-53
5351211,-49
5351218,-26
5351226,5
5351234,29
5351242,28
5351250,26
5351258,43
5351265,71
5351273,99
5351281,119
5351289,139
5351297,162
5351304,184
5351312,205
5351320,216
5351328,193
5351336,137
5351343,23
5351351,-135
5351359,-313
5351367,-446
5351375,-498
5351383,-489
5351390,-459
5351398,-415
5351406,-348
5351414,-254
5351422,-180
5351429,-142
5351437,-120
5351445,-100
5351453,-86
5351461,-88
5351468,-85
5351476,-50
5351484,-9
5351492,0
5351500,-13
5351508,-26
5351515,-25
5351523,-34
5351531,-53
5351539,-61
5351547,-57
5351554,-53
5351562,-56
5351570,-60
5351578,-57
5351586,-59
5351593,-63
5351601,-68
5351609,-61
5351617,-50
5351625,-51
5351633,-58
5351640,-63
5351648,-66
5351656,-62
5351664,-61
5351672,-60
5351679,-57
5351687,-44
5351695,-23
5351703,-18
5351711,-33
5351718,-65
5351726,-84
5351734,-78
5351742,-63
5351750,-43
5351758,-9
5351765,29
5351773,41
5351781,2
5351789,-66
5351797,-110
5351804,-102
5351812,-71
5351820,-48
5351828,-53
5351836,-59
5351843,-35
5351851,1
5351859,-54
5351867,-326
5351875,-362
5351883,701
5351890,2400
5351898,2906
5351906,1276
5351914,-1126
5351922,-2220
5351929,-1636
5351937,-698
5351945,-422
5351953,-484
5351961,-390
5351968,-265
5351976,-192
5351984,-119
5351992,-73
5352000,-38
5352008,-30
5352015,-40
5352023,-34
5352031,-12
5352039,11
5352047,38
5352054,62
5352062,82
5352070,91
5352078,96
5352086,98
5352093,125
5352101,143
5352109,139
5352117,156
5352125,201
5352133,259
5352140,277
5352148,226
5352156,83
5352164,-130
5352172,-348
5352179,-507
5352187,-557
5352195,-519
5352203,-453
5352211,-380
5352218,-302
5352226,-246
5352234,-221
5352242,-201
5352250,-148
5352258,-65
5352265,-17
5352273,-44
5352281,-95
5352289,-100
5352297,-81
5352304,-92
5352312,-114
5352320,-92
5352328,-19
5352336,39
5352343,29
5352351,-14
5352359,-43
5352367,-64
5352375,-78
5352383,-80
5352390,-90
5352398,-106
5352406,-108
5352414,-82
5352422,-41
5352429,-31
5352437,-65
5352445,-100
5352453,-86
5352461,-59
5352468,-44
5352476,-40
5352484,-47
5352492,-57
5352500,-70
5352508,-79
5352515,-76
5352523,-59
5352531,-53
5352539,-71
5352547,-87
5352554,-65
5352562,-4
5352570,37
5352578,36
5352586,8
5352593,-29
5352601,-75
5352609,-89
5352617,-75
5352625,-71
5352633,-111
5352640,-153
5352648,-110
5352656,9
5352664,67
5352672,-126
5352679,-441
5352687,-2
5352695,1595
5352703,2971
5352711,2363
5352718,19
5352726,-1955
5352734,-2135
5352742,-1211
5352750,-575
5352758,-535
5352765,-497
5352773,-329
5352781,-224
5352789,-132
5352797,-87
5352804,-103
5352812,-75
5352820,-7
5352828,54
5352836,67
5352843,25
5352851,-27
5352859,-58
5352867,-68
5352875,-48
5352883,21
5352890,114
5352898,169
5352906,179
5352914,186
5352922,204
5352929,217
5352937,196
5352945,156
5352953,134
5352961,97
5352968,-26
5352976,-232
5352984,-419
5352992,-509
5353000,-516
5353008,-499
5353015,-475
5353023,-420
5353031,-329
5353039,-237
5353047,-172
5353054,-127
5353062,-93
5353070,-87
5353078,-85
5353086,-86
5353093,-71
5353101,-62
5353109,-51
5353117,-14
5353125,15
5353133,4
5353140,-26
5353148,-28
5353156,-6
5353164,0
5353172,-30
5353179,-71
5353187,-68
5353195,-22
5353203,-8
5353211,-55
5353218,-110
5353226,-121
5353234,-82
5353242,-41
5353250,-44
5353258,-44
5353265,-24
5353273,-21
5353281,-50
5353289,-61
5353297,-48
5353304,-46
5353312,-42
5353320,-12
5353328,31
5353336,37
5353343,-17
5353351,-80
5353359,-97
5353367,-74
5353375,-56
5353383,-72
5353390,-112
5353398,-103
5353406,-28
5353414,23
5353422,-197
5353429,-473
5353437,238
5353445,2065
5353453,3212
5353461,2082
5353468,-532
5353476,-2272
5353484,-2071
5353492,-1024
5353500,-512
5353508,-535
5353515,-452
5353523,-283
5353531,-190
5353539,-123
5353547,-102
5353554,-108
5353562,-69
5353570,-13
5353578,14
5353586,-2
5353593,-22
5353601,-12
5353609,16
5353617,36
5353625,46
5353633,72
5353640,99
5353648,116
5353656,139
5353664,181
5353672,215
5353679,229
5353687,227
5353695,215
5353703,170
5353711,59
5353718,-119
5353726,-318
5353734,-467
5353742,-528
5353750,-503
5353758,-430
5353765,-368
5353773,-315
5353781,-265
5353789,-215
5353797,-155
5353804,-116
5353812,-97
5353820,-93
5353828,-90
5353836,-68
5353843,-37
5353851,-11
5353859,-5
5353867,-12
5353875,-13
5353883,-21
5353890,-47
5353898,-69
5353906,-72
5353914,-58
5353922,-50
5353929,-59
5353937,-69
5353945,-64
5353953,-54
5353961,-43
5353968,-17
5353976,5
5353984,-5
5353992,-49
5354000,-84
5354008,-80
5354015,-71
5354023,-67
5354031,-68
5354039,-62
5354047,-68
5354054,-73
5354062,-24
5354070,69
5354078,93
5354086,18
5354093,-62
5354101,-73
5354109,-54
5354117,-76
5354125,-134
5354133,-145
5354140,-108
5354148,-71
5354156,-17
5354164,40
5354172,34
5354179,-197
5354187,-501
5354195,60
5354203,1792
5354211,3121
5354218,2301
5354226,-228
5354234,-2164
5354242,-2163
5354250,-1135
5354258,-537
5354265,-530
5354273,-470
5354281,-301
5354289,-243
5354297,-201
5354304,-133
5354312,-67
5354320,-35
5354328,-43
5354336,-39
5354343,-16
5354351,0
5354359,8
5354367,12
5354375,40
5354383,73
5354390,81
5354398,78
5354406,103
5354414,154
5354422,193
5354429,208
5354437,231
5354445,273
5354453,283
5354461,220
5354468,86
5354476,-95
5354484,-295
5354492,-444
5354500,-503
5354508,-496
5354515,-470
5354523,-441
5354531,-378
5354539,-281
5354547,-209
5354554,-178
5354562,-166
5354570,-138
5354578,-92
5354586,-58
5354593,-44
5354601,-46
5354609,-32
5354617,-12
5354625,0
5354633,-9
5354640,-36
5354648,-53
5354656,-60
5354664,-76
5354672,-58
5354679,-17
5354687,4
5354695,-11
5354703,-39
5354711,-54
5354718,-54
5354726,-65
5354734,-72
5354742,-61
5354750,-49
5354758,-62
5354765,-70
5354773,-47
5354781,-26
5354789,-44
5354797,-75
5354804,-79
5354812,-46
5354820,-7
5354828,17
5354836,24
5354843,5
5354851,-33
5354859,-68
5354867,-85
5354875,-86
5354883,-77
5354890,-76
5354898,-81
5354906,-55
5354914,-2
5354922,-46
5354929,-348
5354937,-399
5354945,730
5354953,2562
5354961,3113
5354968,1373
5354976,-1190
5354984,-2355
5354992,-1764
5355000,-806
5355008,-508
5355015,-528
5355023,-397
5355031,-262
5355039,-195
5355047,-138
5355054,-111
5355062,-91
5355070,-57
5355078,-16
5355086,10
5355093,5
5355101,-8
5355109,-4
5355117,14
5355125,19
5355133,19
5355140,29
5355148,59
5355156,127
5355164,193
5355172,226
5355179,226
5355187,207
5355195,178
5355203,140
5355211,74
5355218,-39
5355226,-195
5355234,-360
5355242,-477
5355250,-489
5355258,-447
5355265,-424
5355273,-411
5355281,-363
5355289,-272
5355297,-181
5355304,-140
5355312,-137
5355320,-111
5355328,-72
5355336,-46
5355343,-43
5355351,-44
5355359,-40
5355367,-27
5355375,0
5355383,12
5355390,-13
5355398,-47
5355406,-55
5355414,-31
5355422,-30
5355429,-64
5355437,-67
5355445,-31
5355453,-26
5355461,-69
5355468,-86
5355476,-44
5355484,-35
5355492,-88
5355500,-126
5355508,-86
5355515,-24
5355523,-23
5355531,-41
5355539,-4
5355547,39
5355554,30
5355562,-38
5355570,-107
5355578,-128
5355586,-89
5355593,-54
5355601,-61
5355609,-104
5355617,-130
5355625,-75
5355633,15
5355640,24
5355648,-222
5355656,-476
5355664,224
5355672,2001
5355679,3151
5355687,2088
5355695,-466
5355703,-2205
5355711,-2044
5355718,-1030
5355726,-527
5355734,-534
5355742,-439
5355750,-272
5355758,-201
5355765,-140
5355773,-80
5355781,-52
5355789,-48
5355797,-65
5355804,-56
5355812,-37
5355820,-27
5355828,-14
5355836,7
5355843,24
5355851,51
5355859,67
5355867,71
5355875,82
5355883,115
5355890,160
5355898,196
5355906,207
5355914,199
5355922,186
5355929,151
5355937,53
5355945,-115
5355953,-309
5355961,-455
5355968,-516
5355976,-505
5355984,-453
5355992,-378
5356000,-297
5356008,-232
5356015,-189
5356023,-159
5356031,-139
5356039,-123
5356047,-88
5356054,-43
5356062,-1
5356070,13
5356078,3
5356086,-18
5356093,-28
5356101,-22
5356109,-15
5356117,-21
5356125,-34
5356133,-42
5356140,-33
5356148,-24
5356156,-28
5356164,-40
5356172,-46
5356179,-58
5356187,-77
5356195,-92
5356203,-85
5356211,-50
5356218,0
5356226,32
5356234,28
5356242,-9
5356250,-57
5356258,-87
5356265,-87
5356273,-83
5356281,-75
5356289,-73
5356297,-76
5356304,-49
5356312,8
5356320,16
5356328,-230
5356336,-519
5356343,177
5356351,2044
5356359,3321
5356367,2286
5356375,-385
5356383,-2285
5356390,-2192
5356398,-1132
5356406,-557
5356414,-547
5356422,-467
5356429,-294
5356437,-210
5356445,-148
5356453,-101
5356461,-71
5356468,-45
5356476,-33
5356484,-27
5356492,-9
5356500,20
5356508,37
5356515,33
5356523,34
5356531,51
5356539,84
5356547,113
5356554,142
5356562,162
5356570,190
5356578,215
5356586,229
5356593,223
5356601,190
5356609,113
5356617,-21
5356625,-215
5356633,-407
5356640,-538
5356648,-577
5356656,-543
5356664,-480
5356672,-408
5356679,-334
5356687,-266
5356695,-207
5356703,-156
5356711,-119
5356718,-96
5356726,-82
5356734,-61
5356742,-30
5356750,-9
5356758,-13
5356765,-37
5356773,-48
5356781,-39
5356789,-25
5356797,-20
5356804,-22
5356812,-28
5356820,-43
5356828,-62
5356836,-83
5356843,-94
5356851,-76
5356859,-30
5356867,8
5356875,15
5356883,-8
5356890,-34
5356898,-46
5356906,-57
5356914,-73
5356922,-82
5356929,-71
5356937,-68
5356945,-51
5356953,-1
5356961,25
5356968,-125
5356976,-471
5356984,-226
5356992,1328
5357000,3068
5357008,2941
5357015,645
5357023,-1777
5357031,-2393
5357039,-1492
5357047,-646
5357054,-510
5357062,-523
5357070,-364
5357078,-235
5357086,-158
5357093,-101
5357101,-78
5357109,-60
5357117,-34
5357125,-11
5357133,8
5357140,12
5357148,15
5357156,30
5357164,48
5357172,68
5357179,88
5357187,104
5357195,124
5357203,143
5357211,168
5357218,206
5357226,234
5357234,234
5357242,191
5357250,119
5357258,8
5357265,-153
5357273,-339
5357281,-480
5357289,-544
5357297,-530
5357304,-477
5357312,-407
5357320,-333
5357328,-260
5357336,-193
5357343,-147
5357351,-121
5357359,-102
5357367,-73
5357375,-43
5357383,-31
5357390,-33
5357398,-30
5357406,-26
5357414,-21
5357422,-29
5357429,-35
5357437,-35
5357445,-35
5357453,-36
5357461,-41
5357468,-50
5357476,-58
5357484,-69
5357492,-85
5357500,-91
5357508,-82
5357515,-45
5357523,-6
5357531,14
5357539,0
5357547,-28
5357554,-43
5357562,-52
5357570,-58
5357578,-67
5357586,-61
5357593,-62
5357601,-53
5357609,-19
5357617,15
5357625,-94
5357633,-437
5357640,-349
5357648,1054
5357656,2939
5357664,3186
5357672,1095
5357679,-1510
5357687,-2455
5357695,-1692
5357703,-766
5357711,-553
5357718,-565
5357726,-396
5357734,-251
5357742,-184
5357750,-127
5357758,-93
5357765,-65
5357773,-49
5357781,-37
5357789,-21
5357797,2
5357804,10
5357812,12
5357820,23
5357828,45
5357836,70
5357843,87
5357851,112
5357859,144
5357867,172
5357875,193
5357883,205
5357890,211
5357898,198
5357906,158
5357914,62
5357922,-95
5357929,-290
5357937,-451
5357945,-537
5357953,-537
5357961,-483
5357968,-401
5357976,-320
5357984,-261
5357992,-225
5358000,-181
5358008,-132
5358015,-87
5358023,-62
5358031,-56
5358039,-59
5358047,-55
5358054,-43
5358062,-24
5358070,-19
5358078,-25
5358086,-30
5358093,-27
5358101,-28
5358109,-37
5358117,-50
5358125,-55
5358133,-61
5358140,-58
5358148,-57
5358156,-53
5358164,-54
5358172,-58
5358179,-61
5358187,-57
5358195,-62
5358203,-80
5358211,-83
5358218,-63
5358226,-32
5358234,-1
5358242,12
5358250,5
5358258,-16
5358265,-40
5358273,-57
5358281,-68
5358289,-70
5358297,-62
5358304,-65
5358312,-64
5358320,-32
5358328,4
5358336,-84
5358343,-436
5358351,-384
5358359,1015
5358367,2963
5358375,3289
5358383,1205
5358390,-1472
5358398,-2500
5358406,-1758
5358414,-810
5358422,-573
5358429,-580
5358437,-411
5358445,-274
5358453,-213
5358461,-150
5358468,-111
5358476,-73
5358484,-37
5358492,-17
5358500,-9
5358508,-8
5358515,-2
5358523,9
5358531,13
5358539,21
5358547,44
5358554,87
5358562,135
5358570,166
5358578,189
5358586,207
5358593,214
5358601,206
5358609,199
5358617,177
5358625,103
5358633,-43
5358640,-231
5358648,-401
5358656,-498
5358664,-521
5358672,-492
5358679,-433
5358687,-360
5358695,-285
5358703,-222
5358711,-175
5358718,-134
5358726,-97
5358734,-69
5358742,-62
5358750,-59
5358758,-52
5358765,-44
5358773,-37
5358781,-31
5358789,-30
5358797,-34
5358804,-45
5358812,-48
5358820,-46
5358828,-51
5358836,-59
5358843,-66
5358851,-60
5358859,-49
5358867,-45
5358875,-50
5358883,-52
5358890,-53
5358898,-53
5358906,-58
5358914,-63
5358922,-68
5358929,-63
5358937,-52
5358945,-41
5358953,-36
5358961,-43
5358968,-49
5358976,-53
5358984,-53
5358992,-50
5359000,-45
5359008,-48
5359015,-47
5359023,-43
5359031,-38
5359039,-46
5359047,-71
5359054,-87
5359062,-73
5359070,-39
5359078,-10
5359086,9
5359093,23
5359101,21
5359109,-13
5359117,-64
5359125,-90
5359133,-85
5359140,-78
5359148,-76
5359156,-85
5359164,-81
5359172,-34
5359179,7
5359187,-89
5359195,-440
5359203,-418
5359211,930
5359218,2897
5359226,3334
5359234,1344
5359242,-1351
5359250,-2473
5359258,-1809
5359265,-864
5359273,-609
5359281,-614
5359289,-437
5359297,-282
5359304,-214
5359312,-146
5359320,-99
5359328,-64
5359336,-51
5359343,-56
5359351,-45
5359359,-18
5359367,12
5359375,26
5359383,34
5359390,51
5359398,69
5359406,74
5359414,82
5359422,106
5359429,150
5359437,180
5359445,198
5359453,212
5359461,227
5359468,228
5359476,185
5359484,83
5359492,-80
5359500,-266
5359508,-424
5359515,-509
5359523,-520
5359531,-487
5359539,-425
5359547,-357
5359554,-291
5359562,-228
5359570,-172
5359578,-121
5359586,-94
5359593,-91
5359601,-95
5359609,-75
5359617,-46
5359625,-23
5359633,-26
5359640,-46
5359648,-57
5359656,-51
5359664,-51
5359672,-59
5359679,-64
5359687,-56
5359695,-42
5359703,-36
5359711,-44
5359718,-48
5359726,-51
5359734,-56
5359742,-62
5359750,-66
5359758,-66
5359765,-65
5359773,-55
5359781,-38
5359789,-33
5359797,-44
5359804,-62
5359812,-66
5359820,-55
5359828,-49
5359836,-47
5359843,-46
5359851,-42
5359859,-37
5359867,-45
5359875,-55
5359883,-59
5359890,-58
5359898,-64
5359906,-67
5359914,-55
5359922,-32
5359929,-5
5359937,17
5359945,16
5359953,1
5359961,-30
5359968,-59
5359976,-78
5359984,-92
5359992,-95
5360000,-74
5360008,-66
5360015,-54
5360023,-12
5360031,9
5360039,-168
5360047,-528
5360054,-171
5360062,1536
5360070,3250
5360078,2906
5360086,444
5360093,-1925
5360101,-2387
5360109,-1446
5360117,-674
5360125,-583
5360133,-558
5360140,-381
5360148,-262
5360156,-187
5360164,-119
5360172,-78
5360179,-52
5360187,-44
5360195,-43
5360203,-22
5360211,1
5360218,14
5360226,14
5360234,24
5360242,46
5360250,73
5360258,91
5360265,103
5360273,122
5360281,152
5360289,181
5360297,201
5360304,203
5360312,197
5360320,182
5360328,130
5360336,10
5360343,-163
5360351,-333
5360359,-462
5360367,-525
5360375,-511
5360383,-454
5360390,-386
5360398,-326
5360406,-266
5360414,-211
5360422,-161
5360429,-129
5360437,-102
5360445,-80
5360453,-63
5360461,-57
5360468,-51
5360476,-39
5360484,-26
5360492,-23
5360500,-32
5360508,-47
5360515,-47
5360523,-41
5360531,-36
5360539,-45
5360547,-61
5360554,-65
5360562,-50
5360570,-42
5360578,-52
5360586,-64
5360593,-63
5360601,-63
5360609,-68
5360617,-69
5360625,-61
5360633,-46
5360640,-34
5360648,-37
5360656,-51
5360664,-68
5360672,-72
5360679,-57
5360687,-36
5360695,-31
5360703,-43
5360711,-58
5360718,-66
5360726,-61
5360734,-51
5360742,-41
5360750,-42
5360758,-42
5360765,-48
5360773,-59
5360781,-65
5360789,-64
5360797,-68
5360804,-74
5360812,-77
5360820,-57
5360828,-22
5360836,10
5360843,28
5360851,25
5360859,-1
5360867,-49
5360875,-86
5360883,-87
5360890,-77
5360898,-68
5360906,-76
5360914,-95
5360922,-66
5360929,-2
5360937,-1
5360945,-241
5360953,-553
5360961,55
5360968,1915
5360976,3380
5360984,2588
5360992,-30
5361000,-2127
5361008,-2274
5361015,-1286
5361023,-656
5361031,-609
5361039,-533
5361047,-351
5361054,-255
5361062,-180
5361070,-118
5361078,-82
5361086,-56
5361093,-42
5361101,-32
5361109,-13
5361117,9
5361125,15
5361133,10
5361140,10
5361148,30
5361156,56
5361164,74
5361172,90
5361179,126
5361187,161
5361195,194
5361203,209
5361211,216
5361218,210
5361226,180
5361234,119
5361242,18
5361250,-128
5361258,-295
5361265,-442
5361273,-526
5361281,-535
5361289,-484
5361297,-409
5361304,-329
5361312,-251
5361320,-191
5361328,-149
5361336,-124
5361343,-96
5361351,-79
5361359,-71
5361367,-70
5361375,-60
5361383,-43
5361390,-36
5361398,-36
5361406,-37
5361414,-35
5361422,-41
5361429,-47
5361437,-42
5361445,-29
5361453,-28
5361461,-44
5361468,-61
5361476,-62
5361484,-57
5361492,-62
5361500,-71
5361508,-70
5361515,-60
5361523,-49
5361531,-54
5361539,-73
5361547,-92
5361554,-80
5361562,-45
5361570,-11
5361578,-11
5361586,-36
5361593,-59
5361601,-60
5361609,-57
5361617,-55
5361625,-64
5361633,-72
5361640,-71
5361648,-60
5361656,-52
5361664,-46
5361672,-42
5361679,-40
5361687,-41
5361695,-47
5361703,-66
5361711,-81
5361718,-79
5361726,-57
5361734,-22
5361742,11
5361750,22
5361758,5
5361765,-34
5361773,-74
5361781,-84
5361789,-79
5361797,-68
5361804,-59
5361812,-70
5361820,-75
5361828,-39
5361836,-8
5361843,-129
5361851,-469
5361859,-313
5361867,1154
5361875,3001
5361883,3127
5361890,974
5361898,-1570
5361906,-2419
5361914,-1637
5361922,-763
5361929,-592
5361937,-598
5361945,-419
5361953,-266
5361961,-186
5361968,-124
5361976,-91
5361984,-63
5361992,-46
5362000,-37
5362008,-27
5362015,-14
5362023,-1
5362031,9
5362039,25
5362047,43
5362054,59
5362062,76
5362070,87
5362078,109
5362086,137
5362093,161
5362101,182
5362109,196
5362117,208
5362125,198
5362133,159
5362140,67
5362148,-75
5362156,-251
5362164,-408
5362172,-502
5362179,-517
5362187,-476
5362195,-412
5362203,-347
5362211,-282
5362218,-222
5362226,-173
5362234,-139
5362242,-111
5362250,-84
5362258,-64
5362265,-57
5362273,-62
5362281,-61
5362289,-49
5362297,-31
5362304,-18
5362312,-15
5362320,-17
5362328,-30
5362336,-39
5362343,-41
5362351,-40
5362359,-47
5362367,-56
5362375,-58
5362383,-57
5362390,-60
5362398,-62
5362406,-62
5362414,-51
5362422,-46
5362429,-51
5362437,-52
5362445,-47
5362453,-45
5362461,-48
5362468,-54
5362476,-55
5362484,-51
5362492,-50
5362500,-54
5362508,-53
5362515,-46
5362523,-40
5362531,-41
5362539,-44
5362547,-52
5362554,-60
5362562,-73
5362570,-80
5362578,-70
5362586,-49
5362593,-17
5362601,14
5362609,27
5362617,6
5362625,-31
5362633,-65
5362640,-81
5362648,-84
5362656,-77
5362664,-72
5362672,-85
5362679,-71
5362687,-26
5362695,-27
5362703,-240
5362711,-520
5362718,91
5362726,1914
5362734,3337
5362742,2543
5362750,-57
5362758,-2128
5362765,-2259
5362773,-1274
5362781,-654
5362789,-616
5362797,-532
5362804,-338
5362812,-239
5362820,-175
5362828,-121
5362836,-83
5362843,-56
5362851,-43
5362859,-41
5362867,-45
5362875,-34
5362883,-6
5362890,28
5362898,56
5362906,63
5362914,70
5362922,80
5362929,100
5362937,122
5362945,145
5362953,183
5362961,213
5362968,210
5362976,189
5362984,160
5362992,112
5363000,22
5363008,-146
5363015,-342
5363023,-495
5363031,-566
5363039,-553
5363047,-486
5363054,-392
5363062,-304
5363070,-248
5363078,-220
5363086,-205
5363093,-172
5363101,-126
5363109,-77
5363117,-40
5363125,-26
5363133,-32
5363140,-37
5363148,-28
5363156,-23
5363164,-32
5363172,-46
5363179,-53
5363187,-45
5363195,-28
5363203,-23
5363211,-30
5363218,-41
5363226,-47
5363234,-46
5363242,-51
5363250,-69
5363258,-81
5363265,-62
5363273,-33
5363281,-22
5363289,-43
5363297,-74
5363304,-80
5363312,-56
5363320,-25
5363328,-22
5363336,-37
5363343,-48
5363351,-53
5363359,-54
5363367,-57
5363375,-57
5363383,-49
5363390,-35
5363398,-10
5363406,23
5363414,28
5363422,1
5363429,-49
5363437,-81
5363445,-86
5363453,-73
5363461,-55
5363468,-50
5363476,-64
5363484,-46
5363492,5
5363500,2
5363508,-247
5363515,-488
5363523,255
5363531,2070
5363539,3215
5363547,2118
5363554,-466
5363562,-2216
5363570,-2060
5363578,-1040
5363586,-518
5363593,-526
5363601,-462
5363609,-305
5363617,-215
5363625,-137
5363633,-88
5363640,-66
5363648,-39
5363656,-18
5363664,-11
5363672,-15
5363679,-12
5363687,10
5363695,30
5363703,47
5363711,54
5363718,67
5363726,88
5363734,117
5363742,152
5363750,187
5363758,209
5363765,217
5363773,204
5363781,183
5363789,144
5363797,69
5363804,-71
5363812,-262
5363820,-434
5363828,-524
5363836,-535
5363843,-506
5363851,-457
5363859,-385
5363867,-299
5363875,-235
5363883,-193
5363890,-158
5363898,-116
5363906,-87
5363914,-68
5363922,-62
5363929,-49
5363937,-37
5363945,-27
5363953,-13
5363961,-4
5363968,-13
5363976,-29
5363984,-41
5363992,-41
5364000,-40
5364008,-49
5364015,-61
5364023,-56
5364031,-54
5364039,-59
5364047,-65
5364054,-60
5364062,-47
5364070,-43
5364078,-53
5364086,-62
5364093,-58
5364101,-62
5364109,-70
5364117,-72
5364125,-60
5364133,-35
5364140,-2
5364148,23
5364156,21
5364164,-6
5364172,-44
5364179,-65
5364187,-67
5364195,-68
5364203,-68
5364211,-72
5364218,-85
5364226,-74
5364234,-20
5364242,13
5364250,-183
5364258,-527
5364265,-74
5364273,1674
5364281,3243
5364289,2678
5364297,156
5364304,-2038
5364312,-2293
5364320,-1305
5364328,-608
5364336,-556
5364343,-517
5364351,-338
5364359,-233
5364367,-166
5364375,-110
5364383,-79
5364390,-59
5364398,-50
5364406,-33
5364414,-11
5364422,-4
5364429,-13
5364437,-15
5364445,18
5364453,70
5364461,99
5364468,97
5364476,101
5364484,132
5364492,163
5364500,189
5364508,205
5364515,202
5364523,190
5364531,150
5364539,66
5364547,-71
5364554,-251
5364562,-416
5364570,-507
5364578,-514
5364586,-477
5364593,-427
5364601,-364
5364609,-290
5364617,-219
5364625,-162
5364633,-126
5364640,-99
5364648,-82
5364656,-66
5364664,-54
5364672,-41
5364679,-33
5364687,-33
5364695,-26
5364703,-14
5364711,-12
5364718,-21
5364726,-29
5364734,-32
5364742,-36
5364750,-44
5364758,-45
5364765,-49
5364773,-54
5364781,-55
5364789,-55
5364797,-60
5364804,-62
5364812,-61
5364820,-57
5364828,-55
5364836,-59
5364843,-57
5364851,-50
5364859,-56
5364867,-74
5364875,-76
5364883,-54
5364890,-22
5364898,15
5364906,33
5364914,25
5364922,-21
5364929,-71
5364937,-89
5364945,-85
5364953,-72
5364961,-60
5364968,-62
5364976,-59
5364984,-27
5364992,1
5365000,-119
5365008,-465
5365015,-321
5365023,1143
5365031,2990
5365039,3110
5365047,935
5365054,-1610
5365062,-2437
5365070,-1629
5365078,-744
5365086,-562
5365093,-564
5365101,-392
5365109,-257
5365117,-191
5365125,-128
5365133,-91
5365140,-61
5365148,-44
5365156,-29
5365164,-16
5365172,-15
5365179,-12
5365187,0
5365195,25
5365203,48
5365211,65
5365218,79
5365226,95
5365234,124
5365242,146
5365250,168
5365258,189
5365265,202
5365273,199
5365281,173
5365289,111
5365297,-5
5365304,-173
5365312,-350
5365320,-476
5365328,-518
5365336,-492
5365343,-436
5365351,-371
5365359,-300
5365367,-236
5365375,-190
5365383,-149
5365390,-115
5365398,-84
5365406,-65
5365414,-56
5365422,-51
5365429,-43
5365437,-29
5365445,-22
5365453,-27
5365461,-35
5365468,-32
5365476,-20
5365484,-17
5365492,-29
5365500,-48
5365508,-58
5365515,-57
5365523,-52
5365531,-54
5365539,-58
5365547,-69
5365554,-73
5365562,-71
5365570,-60
5365578,-52
5365586,-48
5365593,-44
5365601,-46
5365609,-53
5365617,-55
5365625,-59
5365633,-69
5365640,-90
5365648,-97
5365656,-67
5365664,-25
5365672,4
5365679,25
5365687,38
5365695,20
5365703,-38
5365711,-95
5365718,-104
5365726,-86
5365734,-70
5365742,-69
5365750,-89
5365758,-83
5365765,-31
5365773,8
5365781,-119
5365789,-462
5365797,-265
5365804,1222
5365812,2973
5365820,2949
5365828,754
5365836,-1662
5365843,-2345
5365851,-1513
5365859,-685
5365867,-550
5365875,-559
5365883,-384
5365890,-243
5365898,-165
5365906,-106
5365914,-84
5365922,-63
5365929,-45
5365937,-40
5365945,-37
5365953,-25
5365961,-2
5365968,22
5365976,42
5365984,52
5365992,57
5366000,69
5366008,89
5366015,115
5366023,144
5366031,174
5366039,199
5366047,214
5366054,216
5366062,185
5366070,110
5366078,-17
5366086,-175
5366093,-339
5366101,-461
5366109,-511
5366117,-495
5366125,-448
5366133,-389
5366140,-320
5366148,-242
5366156,-177
5366164,-136
5366172,-115
5366179,-95
5366187,-71
5366195,-57
5366203,-46
5366211,-40
5366218,-37
5366226,-37
5366234,-39
5366242,-38
5366250,-37
5366258,-35
5366265,-41
5366273,-46
5366281,-48
5366289,-47
5366297,-48
5366304,-48
5366312,-52
5366320,-53
5366328,-63
5366336,-68
5366343,-75
5366351,-78
5366359,-71
5366367,-58
5366375,-42
5366383,-40
5366390,-56
5366398,-65
5366406,-63
5366414,-65
5366422,-76
5366429,-79
5366437,-60
5366445,-29
5366453,-1
5366461,14
5366468,7
5366476,-24
5366484,-70
5366492,-104
5366500,-102
5366508,-83
5366515,-63
5366523,-67
5366531,-84
5366539,-52
5366547,10
5366554,-27
5366562,-345
5366570,-526
5366578,467
5366586,2383
5366593,3250
5366601,1761
5366609,-883
5366617,-2336
5366625,-1910
5366633,-900
5366640,-502
5366648,-527
5366656,-421
5366664,-281
5366672,-216
5366679,-147
5366687,-93
5366695,-62
5366703,-47
5366711,-41
5366718,-31
5366726,-13
5366734,1
5366742,15
5366750,20
5366758,35
5366765,57
5366773,80
5366781,103
5366789,126
5366797,147
5366804,171
5366812,198
5366820,219
5366828,214
5366836,184
5366843,118
5366851,9
5366859,-141
5366867,-313
5366875,-452
5366883,-521
5366890,-520
5366898,-475
5366906,-410
5366914,-340
5366922,-276
5366929,-220
5366937,-170
5366945,-124
5366953,-89
5366961,-70
5366968,-65
5366976,-55
5366984,-35
5366992,-17
5367000,-17
5367008,-24
5367015,-30
5367023,-28
5367031,-29
5367039,-28
5367047,-31
5367054,-42
5367062,-51
5367070,-58
5367078,-63
5367086,-61
5367093,-60
5367101,-62
5367109,-62
5367117,-56
5367125,-48
5367133,-52
5367140,-70
5367148,-90
5367156,-82
5367164,-52
5367172,-18
5367179,16
5367187,35
5367195,26
5367203,-13
5367211,-58
5367218,-79
5367226,-84
5367234,-81
5367242,-69
5367250,-65
5367258,-71
5367265,-49
5367273,6
5367281,-17
5367289,-323
5367297,-491
5367304,516
5367312,2436
5367320,3278
5367328,1740
5367336,-928
5367343,-2367
5367351,-1914
5367359,-897
5367367,-522
5367375,-554
5367383,-435
5367390,-273
5367398,-190
5367406,-130
5367414,-101
5367422,-74
5367429,-45
5367437,-22
5367445,-7
5367453,3
5367461,7
5367468,8
5367476,16
5367484,30
5367492,54
5367500,79
5367508,86
5367515,95
5367523,125
5367531,179
5367539,229
5367547,252
5367554,231
5367562,176
5367570,76
5367578,-73
5367586,-254
5367593,-403
5367601,-478
5367609,-481
5367617,-453
5367625,-415
5367633,-369
5367640,-311
5367648,-262
5367656,-231
5367664,-208
5367672,-153
5367679,-83
5367687,-34
5367695,-22
5367703,-31
5367711,-38
5367718,-30
5367726,-31
5367734,-40
5367742,-46
5367750,-31
5367758,-7
5367765,0
5367773,-22
5367781,-51
5367789,-64
5367797,-66
5367804,-70
5367812,-63
5367820,-46
5367828,-29
5367836,-26
5367843,-35
5367851,-48
5367859,-57
5367867,-60
5367875,-57
5367883,-56
5367890,-61
5367898,-69
5367906,-77
5367914,-71
5367922,-56
5367929,-30
5367937,8
5367945,38
5367953,33
5367961,-5
5367968,-54
5367976,-78
5367984,-81
5367992,-80
5368000,-76
5368008,-78
5368015,-76
5368023,-35
5368031,19
5368039,-25
5368047,-336
5368054,-483
5368062,550
5368070,2460
5368078,3261
5368086,1695
5368093,-958
5368101,-2360
5368109,-1895
5368117,-894
5368125,-533
5368133,-570
5368140,-440
5368148,-278
5368156,-202
5368164,-140
5368172,-102
5368179,-75
5368187,-53
5368195,-41
5368203,-30
5368211,-18
5368218,-9
5368226,2
5368234,20
5368242,39
5368250,56
5368258,68
5368265,90
5368273,114
5368281,145
5368289,167
5368297,179
5368304,183
5368312,179
5368320,159
5368328,115
5368336,12
5368343,-144
5368351,-320
5368359,-454
5368367,-512
5368375,-500
5368383,-448
5368390,-377
5368398,-308
5368406,-243
5368414,-196
5368422,-153
5368429,-116
5368437,-90
5368445,-76
5368453,-70
5368461,-59
5368468,-44
5368476,-33
5368484,-22
5368492,-20
5368500,-24
5368508,-35
5368515,-39
5368523,-39
5368531,-39
5368539,-41
5368547,-46
5368554,-54
5368562,-62
5368570,-68
5368578,-67
5368586,-62
5368593,-59
5368601,-60
5368609,-64
5368617,-64
5368625,-63
5368633,-59
5368640,-49
5368648,-46
5368656,-59
5368664,-87
5368672,-98
5368679,-71
5368687,-25
5368695,14
5368703,35
5368711,29
5368718,-1
5368726,-48
5368734,-90
5368742,-103
5368750,-89
5368758,-64
5368765,-54
5368773,-74
5368781,-71
5368789,-23
5368797,-5
5368804,-219
5368812,-529
5368820,50
5368828,1854
5368836,3260
5368843,2459
5368851,-118
5368859,-2132
5368867,-2198
5368875,-1180
5368883,-563
5368890,-555
5368898,-502
5368906,-325
5368914,-224
5368922,-154
5368929,-101
5368937,-78
5368945,-57
5368953,-44
5368961,-30
5368968,-17
5368976,-6
5368984,5
5368992,20
5369000,45
5369008,66
5369015,80
5369023,91
5369031,102
5369039,132
5369047,167
5369054,193
5369062,202
5369070,200
5369078,184
5369086,138
5369093,46
5369101,-102
5369109,-275
5369117,-422
5369125,-506
5369133,-518
5369140,-484
5369148,-419
5369156,-335
5369164,-260
5369172,-205
5369179,-165
5369187,-132
5369195,-110
5369203,-86
5369211,-73
5369218,-62
5369226,-58
5369234,-50
5369242,-43
5369250,-34
5369258,-35
5369265,-31
5369273,-18
5369281,-4
5369289,-8
5369297,-26
5369304,-47
5369312,-60
5369320,-67
5369328,-71
5369336,-71
5369343,-66
5369351,-53
5369359,-44
5369367,-44
5369375,-53
5369383,-59
5369390,-61
5369398,-63
5369406,-63
5369414,-60
5369422,-53
5369429,-52
5369437,-52
5369445,-63
5369453,-72
5369461,-79
5369468,-76
5369476,-54
5369484,-13
5369492,13
5369500,23
5369508,4
5369515,-32
5369523,-72
5369531,-90
5369539,-97
5369547,-89
5369554,-69
5369562,-68
5369570,-68
5369578,-31
5369586,3
5369593,-119
5369601,-475
5369609,-326
5369617,1141
5369625,2956
5369633,3033
5369640,862
5369648,-1625
5369656,-2386
5369664,-1573
5369672,-719
5369679,-553
5369687,-543
5369695,-366
5369703,-249
5369711,-194
5369718,-123
5369726,-72
5369734,-50
5369742,-38
5369750,-29
5369758,-14
5369765,-2
5369773,2
5369781,8
5369789,17
5369797,34
5369804,58
5369812,77
5369820,109
5369828,141
5369836,177
5369843,202
5369851,207
5369859,201
5369867,198
5369875,172
5369883,101
5369890,-37
5369898,-219
5369906,-393
5369914,-497
5369922,-519
5369929,-500
5369937,-458
5369945,-388
5369953,-306
5369961,-238
5369968,-192
5369976,-153
5369984,-124
5369992,-111
5370000,-97
5370008,-69
5370015,-29
5370023,-7
5370031,-13
5370039,-27
5370047,-31
5370054,-20
5370062,-13
5370070,-21
5370078,-41
5370086,-53
5370093,-50
5370101,-40
5370109,-38
5370117,-47
5370125,-58
5370133,-72
5370140,-77
5370148,-77
5370156,-62
5370164,-44
5370172,-33
5370179,-42
5370187,-61
5370195,-71
5370203,-61
5370211,-50
5370218,-47
5370226,-50
5370234,-55
5370242,-63
5370250,-71
5370258,-65
5370265,-43
5370273,-11
5370281,13
5370289,16
5370297,-3
5370304,-43
5370312,-77
5370320,-88
5370328,-87
5370336,-71
5370343,-59
5370351,-73
5370359,-59
5370367,-14
5370375,-18
5370383,-265
5370390,-539
5370398,181
5370406,2063
5370414,3340
5370422,2309
5370429,-343
5370437,-2224
5370445,-2140
5370453,-1116
5370461,-575
5370468,-578
5370476,-485
5370484,-297
5370492,-202
5370500,-144
5370508,-103
5370515,-81
5370523,-56
5370531,-39
5370539,-22
5370547,-13
5370554,-2
5370562,13
5370570,31
5370578,47
5370586,62
5370593,77
5370601,99
5370609,123
5370617,142
5370625,168
5370633,204
5370640,231
5370648,230
5370656,194
5370664,134
5370672,35
5370679,-114
5370687,-297
5370695,-454
5370703,-527
5370711,-522
5370718,-473
5370726,-408
5370734,-335
5370742,-267
5370750,-210
5370758,-161
5370765,-126
5370773,-93
5370781,-78
5370789,-71
5370797,-66
5370804,-57
5370812,-48
5370820,-30
5370828,-14
5370836,-4
5370843,-8
5370851,-22
5370859,-22
5370867,-19
5370875,-27
5370883,-46
5370890,-56
5370898,-63
5370906,-67
5370914,-66
5370922,-61
5370929,-58
5370937,-58
5370945,-61
5370953,-60
5370961,-52
5370968,-51
5370976,-55
5370984,-56
5370992,-54
5371000,-47
5371008,-42
5371015,-45
5371023,-50
5371031,-56
5371039,-60
5371047,-60
5371054,-50
5371062,-33
5371070,-36
5371078,-54
5371086,-68
5371093,-65
5371101,-50
5371109,-17
5371117,15
5371125,19
5371133,-7
5371140,-43
5371148,-68
5371156,-70
5371164,-71
5371172,-71
5371179,-72
5371187,-86
5371195,-87
5371203,-37
5371211,3
5371218,-140
5371226,-501
5371234,-257
5371242,1326
5371250,3110
5371258,3016
5371265,720
5371273,-1735
5371281,-2399
5371289,-1545
5371297,-721
5371304,-579
5371312,-560
5371320,-378
5371328,-255
5371336,-190
5371343,-129
5371351,-96
5371359,-65
5371367,-36
5371375,-12
5371383,3
5371390,-3
5371398,-5
5371406,2
5371414,23
5371422,45
5371429,62
5371437,79
5371445,102
5371453,125
5371461,152
5371468,182
5371476,212
5371484,233
5371492,224
5371500,186
5371508,115
5371515,-2
5371523,-168
5371531,-345
5371539,-479
5371547,-534
5371554,-517
5371562,-455
5371570,-393
5371578,-333
5371586,-266
5371593,-194
5371601,-134
5371609,-101
5371617,-88
5371625,-79
5371633,-66
5371640,-55
5371648,-46
5371656,-41
5371664,-37
5371672,-31
5371679,-18
5371687,-8
5371695,-12
5371703,-32
5371711,-51
5371718,-54
5371726,-47
5371734,-41
5371742,-44
5371750,-58
5371758,-69
5371765,-65
5371773,-57
5371781,-52
5371789,-51
5371797,-57
5371804,-68
5371812,-70
5371820,-62
5371828,-59
5371836,-65
5371843,-66
5371851,-49
5371859,-24
5371867,-24
5371875,-47
5371883,-59
5371890,-54
5371898,-39
5371906,-30
5371914,-43
5371922,-62
5371929,-72
5371937,-69
5371945,-66
5371953,-65
5371961,-56
5371968,-28
5371976,12
5371984,38
5371992,22
5372000,-23
5372008,-70
5372015,-93
5372023,-96
5372031,-86
5372039,-65
5372047,-68
5372054,-72
5372062,-34
5372070,8
5372078,-88
5372086,-451
5372093,-425
5372101,921
5372109,2851
5372117,3238
5372125,1258
5372133,-1363
5372140,-2416
5372148,-1737
5372156,-816
5372164,-584
5372172,-598
5372179,-427
5372187,-271
5372195,-199
5372203,-135
5372211,-94
5372218,-66
5372226,-47
5372234,-37
5372242,-29
5372250,-15
5372258,-7
5372265,3
5372273,15
5372281,32
5372289,57
5372297,80
5372304,106
5372312,132
5372320,154
5372328,172
5372336,183
5372343,199
5372351,214
5372359,207
5372367,154
5372375,34
5372383,-132
5372390,-312
5372398,-457
5372406,-530
5372414,-534
5372422,-487
5372429,-407
5372437,-320
5372445,-245
5372453,-195
5372461,-165
5372468,-144
5372476,-121
5372484,-94
5372492,-72
5372500,-60
5372508,-56
5372515,-45
5372523,-29
5372531,-18
5372539,-19
5372547,-25
5372554,-30
5372562,-31
5372570,-32
5372578,-32
5372586,-34
5372593,-42
5372601,-52
5372609,-67
5372617,-73
5372625,-69
5372633,-56
5372640,-51
5372648,-52
5372656,-57
5372664,-62
5372672,-66
5372679,-71
5372687,-61
5372695,-46
5372703,-35
5372711,-34
5372718,-47
5372726,-60
5372734,-62
5372742,-57
5372750,-54
5372758,-58
5372765,-64
5372773,-64
5372781,-53
5372789,-53
5372797,-73
5372804,-82
5372812,-71
5372820,-46
5372828,-18
5372836,-4
5372843,7
5372851,9
5372859,-12
5372867,-54
5372875,-83
5372883,-95
5372890,-92
5372898,-73
5372906,-67
5372914,-61
5372922,-16
5372929,25
5372937,-78
5372945,-440
5372953,-408
5372961,937
5372968,2839
5372976,3188
5372984,1189
5372992,-1417
5373000,-2426
5373008,-1713
5373015,-776
5373023,-544
5373031,-563
5373039,-411
5373047,-273
5373054,-207
5373062,-138
5373070,-93
5373078,-55
5373086,-42
5373093,-43
5373101,-30
5373109,-3
5373117,20
5373125,28
5373133,29
5373140,44
5373148,65
5373156,84
5373164,102
5373172,128
5373179,161
5373187,188
5373195,207
5373203,222
5373211,228
5373218,209
5373226,141
5373234,17
5373242,-152
5373250,-334
5373258,-472
5373265,-539
5373273,-532
5373281,-479
5373289,-410
5373297,-349
5373304,-281
5373312,-215
5373320,-159
5373328,-135
5373336,-123
5373343,-106
5373351,-68
5373359,-35
5373367,-21
5373375,-28
5373383,-30
5373390,-28
5373398,-30
5373406,-31
5373414,-23
5373422,-17
5373429,-20
5373437,-37
5373445,-57
5373453,-55
5373461,-45
5373468,-52
5373476,-64
5373484,-68
5373492,-66
5373500,-65
5373508,-61
5373515,-49
5373523,-35
5373531,-38
5373539,-64
5373547,-82
5373554,-76
5373562,-59
5373570,-46
5373578,-48
5373586,-51
5373593,-51
5373601,-45
5373609,-46
5373617,-48
5373625,-51
5373633,-51
5373640,-51
5373648,-54
5373656,-63
5373664,-68
5373672,-69
5373679,-59
5373687,-30
5373695,8
5373703,30
5373711,17
5373718,-19
5373726,-62
5373734,-84
5373742,-93
5373750,-93
5373758,-74
5373765,-70
5373773,-78
5373781,-43
5373789,14
5373797,-58
5373804,-408
5373812,-436
5373820,830
5373828,2769
5373836,3276
5373843,1398
5373851,-1256
5373859,-2421
5373867,-1806
5373875,-860
5373883,-578
5373890,-585
5373898,-428
5373906,-282
5373914,-213
5373922,-139
5373929,-86
5373937,-59
5373945,-44
5373953,-36
5373961,-19
5373968,-9
5373976,-4
