Timestamp,Count
56512,0
56520,0
56528,-1
56535,-2
56543,-2
56551,-3
56559,-7
56567,-6
56575,-9
56582,-13
56590,-9
56598,-23
56606,-11
56614,-5
56621,-79
56629,-27
56637,106
56645,-17
56653,-410
56660,-647
56668,-399
56676,81
56684,315
56692,188
56700,47
56707,102
56715,129
56723,90
56731,90
56739,72
56746,54
56754,51
56762,42
56770,33
56778,23
56785,8
56793,-1
56801,3
56809,13
56817,42
56825,81
56832,97
56840,69
56848,12
56856,-37
56864,-48
56871,-46
56879,-40
56887,-26
56895,15
56903,7
56910,-150
56918,-180
56926,431
56934,1491
56942,1944
56950,1048
56957,-559
56965,-1567
56973,-1442
56981,-796
56989,-371
56996,-233
57004,-159
57012,-103
57020,-62
57028,-43
57035,-40
57043,-37
57051,-29
57059,-20
57067,-9
57075,-2
57082,9
57090,15
57098,22
57106,30
57114,35
57121,31
57129,5
57137,-33
57145,-64
57153,-90
57160,-102
57168,-120
57176,-140
57184,-160
57192,-170
57200,-169
57207,-172
57215,-186
57223,-199
57231,-211
57239,-201
57246,-186
57254,-175
57262,-163
57270,-144
57278,-128
57285,-120
57293,-122
57301,-125
57309,-123
57317,-120
57325,-119
57332,-119
57340,-121
57348,-130
57356,-141
57364,-153
57371,-161
57379,-163
57387,-169
57395,-175
57403,-167
57410,-148
57418,-125
57426,-91
57434,-50
57442,-31
57450,-53
57457,-104
57465,-146
57473,-158
57481,-151
57489,-143
57496,-122
57504,-83
57512,-95
57520,-250
57528,-285
57535,321
57543,1418
57551,1924
57559,1062
57567,-581
57575,-1650
57582,-1558
57590,-904
57598,-454
57606,-306
57614,-234
57621,-170
57629,-126
57637,-91
57645,-78
57653,-77
57660,-65
57668,-56
57676,-41
57684,-23
57692,-1
57700,22
57707,33
57715,34
57723,38
57731,39
57739,31
57746,4
57754,-33
57762,-67
57770,-91
57778,-104
57785,-110
57793,-119
57801,-129
57809,-140
57817,-146
57825,-151
57832,-150
57840,-147
57848,-143
57856,-135
57864,-126
57871,-117
57879,-98
57887,-71
57895,-47
57903,-28
57910,-23
57918,-26
57926,-32
57934,-37
57942,-35
57950,-33
57957,-33
57965,-34
57973,-43
57981,-41
57989,-44
57996,-44
58004,-47
58012,-51
58020,-47
58028,-42
58035,-40
58043,-34
58051,-36
58059,-35
58067,-46
58075,-57
58082,-57
58090,-51
58098,-38
58106,-24
58114,6
58121,42
58129,52
58137,20
58145,-37
58153,-78
58160,-74
58168,-59
58176,-51
58184,-34
58192,-5
58200,-46
58207,-215
58215,-157
58223,601
58231,1675
58239,1932
58246,823
58254,-810
58262,-1654
58270,-1387
58278,-746
58285,-377
58293,-262
58301,-188
58309,-132
58317,-82
58325,-52
58332,-41
58340,-32
58348,-28
58356,-15
58364,5
58371,20
58379,32
58387,45
58395,53
58403,53
58410,48
58418,48
58426,39
58434,20
58442,-4
58450,-34
58457,-60
58465,-76
58473,-89
58481,-96
58489,-111
58496,-132
58504,-142
58512,-154
58520,-163
58528,-160
58535,-143
58543,-130
58551,-147
58559,-176
58567,-192
58575,-165
58582,-115
58590,-89
58598,-88
58606,-96
58614,-108
58621,-116
58629,-132
58637,-144
58645,-143
58653,-140
58660,-125
58668,-110
58676,-94
58684,-82
58692,-89
58700,-96
58707,-99
58715,-96
58723,-82
58731,-69
58739,-61
58746,-63
58754,-72
58762,-75
58770,-79
58778,-79
58785,-75
58793,-63
58801,-46
58809,-34
58817,-32
58825,-23
58832,-15
58840,-6
58848,-16
58856,-27
58864,-31
58871,-28
58879,-22
58887,-20
58895,-30
58903,-45
58910,-57
58918,-64
58926,-69
58934,-57
58942,-7
58950,51
58957,69
58965,20
58973,-57
58981,-97
58989,-109
58996,-120
59004,-127
59012,-108
59020,-60
59028,-115
59035,-293
59043,-147
59051,734
59059,1796
59067,1842
59075,526
59082,-1102
59090,-1771
59098,-1359
59106,-701
59114,-363
59121,-248
59129,-174
59137,-123
59145,-88
59153,-57
59160,-33
59168,-20
59176,-11
59184,-2
59192,9
59200,26
59207,47
59215,62
59223,69
59231,73
59239,74
59246,70
59254,64
59262,51
59270,16
59278,-19
59285,-46
59293,-61
59301,-67
59309,-82
59317,-103
59325,-127
59332,-153
59340,-169
59348,-174
59356,-168
59364,-158
59371,-151
59379,-134
59387,-119
59395,-104
59403,-79
59410,-61
59418,-50
59426,-50
59434,-56
59442,-49
59450,-42
59457,-38
59465,-47
59473,-54
59481,-46
59489,-47
59496,-57
59504,-69
59512,-83
59520,-86
59528,-92
59535,-87
59543,-78
59551,-70
59559,-66
59567,-67
59575,-75
59582,-80
59590,-82
59598,-78
59606,-68
59614,-65
59621,-64
59629,-64
59637,-58
59645,-49
59653,-47
59660,-52
59668,-59
59676,-58
59684,-55
59692,-54
59700,-47
59707,-39
59715,-39
59723,-44
59731,-58
59739,-58
59746,-51
59754,-56
59762,-66
59770,-63
59778,-16
59785,40
59793,58
59801,19
59809,-48
59817,-84
59825,-85
59832,-76
59840,-61
59848,-39
59856,-20
59864,-127
59871,-276
59879,63
59887,1106
59895,2008
59903,1660
59910,89
59918,-1399
59926,-1750
59934,-1175
59942,-570
59950,-314
59957,-216
59965,-144
59973,-99
59981,-61
59989,-38
59996,-21
60004,-4
60012,0
60020,2
60028,6
60035,23
60043,40
60051,53
60059,60
60067,64
60075,67
60082,72
60090,60
60098,37
60106,-3
60114,-40
60121,-70
60129,-95
60137,-116
60145,-141
60153,-164
60160,-171
60168,-178
60176,-179
60184,-181
60192,-190
60200,-193
60207,-195
60215,-182
60223,-152
60231,-119
60239,-94
60246,-71
60254,-53
60262,-27
60270,-11
60278,1
60285,4
60293,-1
60301,-7
60309,-17
60317,-27
60325,-31
60332,-41
60340,-50
60348,-64
60356,-68
60364,-72
60371,-75
60379,-82
60387,-98
60395,-108
60403,-106
60410,-94
60418,-77
60426,-69
60434,-71
60442,-69
60450,-64
60457,-54
60465,-49
60473,-52
60481,-54
60489,-59
60496,-58
60504,-54
60512,-53
60520,-46
60528,-47
60535,-47
60543,-48
60551,-55
60559,-66
60567,-77
60575,-89
60582,-90
60590,-75
60598,-23
60606,40
60614,70
60621,34
60629,-41
60637,-92
60645,-100
60653,-94
60660,-87
60668,-69
60676,-29
60684,-53
60692,-218
60700,-187
60707,557
60715,1712
60723,2085
60731,969
60739,-815
60746,-1822
60754,-1584
60762,-848
60770,-398
60778,-257
60785,-180
60793,-118
60801,-73
60809,-49
60817,-32
60825,-22
60832,-15
60840,-5
60848,-1
60856,9
60864,19
60871,33
60879,51
60887,66
60895,85
60903,90
60910,83
60918,66
60926,45
60934,13
60942,-23
60950,-60
60957,-90
60965,-115
60973,-147
60981,-175
60989,-191
60996,-193
61004,-192
61012,-191
61020,-187
61028,-177
61035,-159
61043,-132
61051,-105
61059,-78
61067,-59
61075,-46
61082,-39
61090,-36
61098,-29
61106,-24
61114,-25
61121,-30
61129,-43
61137,-53
61145,-55
61153,-61
61160,-67
61168,-75
61176,-79
61184,-81
61192,-80
61200,-76
61207,-73
61215,-69
61223,-69
61231,-70
61239,-66
61246,-63
61254,-62
61262,-64
61270,-68
61278,-65
61285,-63
61293,-64
61301,-60
61309,-59
61317,-56
61325,-65
61332,-72
61340,-71
61348,-64
61356,-56
61364,-49
61371,-50
61379,-49
61387,-54
61395,-54
61403,-49
61410,-49
61418,-53
61426,-63
61434,-72
61442,-66
61450,-35
61457,19
61465,56
61473,40
61481,-11
61489,-73
61496,-95
61504,-89
61512,-80
61520,-73
61528,-56
61535,-32
61543,-98
61551,-265
61559,-97
61567,811
61575,1909
61582,1978
61590,618
61598,-1098
61606,-1839
61614,-1436
61621,-740
61629,-382
61637,-268
61645,-190
61653,-132
61660,-90
61668,-66
61676,-54
61684,-43
61692,-33
61700,-17
61707,-5
61715,6
61723,20
61731,34
61739,54
61746,70
61754,82
61762,94
61770,94
61778,85
61785,56
61793,19
61801,-24
61809,-63
61817,-98
61825,-128
61832,-159
61840,-181
61848,-201
61856,-209
61864,-212
61871,-208
61879,-197
61887,-176
61895,-152
61903,-129
61910,-116
61918,-99
61926,-82
61934,-63
61942,-49
61950,-44
61957,-34
61965,-31
61973,-32
61981,-36
61989,-45
61996,-46
62004,-43
62012,-46
62020,-48
62028,-51
62035,-49
62043,-44
62051,-43
62059,-46
62067,-54
62075,-60
62082,-56
62090,-54
62098,-54
62106,-54
62114,-52
62121,-48
62129,-55
62137,-56
62145,-53
62153,-49
62160,-46
62168,-52
62176,-59
62184,-66
62192,-70
62200,-69
62207,-64
62215,-58
62223,-55
62231,-59
62239,-56
62246,-60
62254,-61
62262,-55
62270,-56
62278,-53
62285,-50
62293,-52
62301,-58
62309,-66
62317,-66
62325,-60
62332,-41
62340,2
62348,41
62356,39
62364,-6
62371,-69
62379,-98
62387,-98
62395,-92
62403,-89
62410,-71
62418,-29
62426,-26
62434,-168
62442,-257
62450,250
62457,1383
62465,2120
62473,1460
62481,-248
62489,-1605
62496,-1724
62504,-1064
62512,-510
62520,-314
62528,-241
62535,-170
62543,-115
62551,-82
62559,-59
62567,-47
62575,-28
62582,-13
62590,-5
62598,2
62606,10
62614,22
62621,45
62629,59
62637,70
62645,79
62653,85
62660,80
62668,59
62676,27
62684,-8
62692,-44
62700,-74
62707,-108
62715,-143
62723,-173
62731,-197
62739,-213
62746,-222
62754,-226
62762,-215
62770,-199
62778,-175
62785,-157
62793,-140
62801,-118
62809,-100
62817,-80
62825,-59
62832,-46
62840,-36
62848,-32
62856,-26
62864,-22
62871,-22
62879,-29
62887,-42
62895,-52
62903,-49
62910,-49
62918,-51
62926,-63
62934,-75
62942,-79
62950,-81
62957,-75
62965,-71
62973,-69
62981,-68
62989,-70
62996,-64
63004,-58
63012,-61
63020,-56
63028,-57
63035,-46
63043,-32
63051,-27
63059,-33
63067,-47
63075,-61
63082,-66
63090,-65
63098,-57
63106,-52
63114,-51
63121,-59
63129,-70
63137,-71
63145,-70
63153,-70
63160,-69
63168,-75
63176,-81
63184,-82
63192,-77
63200,-36
63207,18
63215,50
63223,27
63231,-31
63239,-79
63246,-94
63254,-95
63262,-96
63270,-96
63278,-69
63285,-39
63293,-121
63301,-252
63309,85
63317,1140
63325,2062
63332,1690
63340,56
63348,-1509
63356,-1864
63364,-1236
63371,-572
63379,-285
63387,-186
63395,-120
63403,-83
63410,-49
63418,-25
63426,-22
63434,-21
63442,-14
63450,-6
63457,9
63465,19
63473,29
63481,51
63489,70
63496,91
63504,100
63512,97
63520,91
63528,76
63535,48
63543,6
63551,-45
63559,-83
63567,-123
63575,-157
63582,-189
63590,-211
63598,-222
63606,-222
63614,-218
63621,-204
63629,-192
63637,-175
63645,-158
63653,-139
63660,-121
63668,-98
63676,-76
63684,-57
63692,-41
63700,-36
63707,-36
63715,-41
63723,-41
63731,-42
63739,-42
63746,-43
63754,-50
63762,-59
63770,-65
63778,-69
63785,-72
63793,-74
63801,-76
63809,-78
63817,-77
63825,-73
63832,-71
63840,-61
63848,-58
63856,-60
63864,-70
63871,-80
63879,-76
63887,-62
63895,-56
63903,-54
63910,-54
63918,-49
63926,-51
63934,-52
63942,-46
63950,-40
63957,-33
63965,-28
63973,-32
63981,-46
63989,-65
63996,-74
64004,-66
64012,-43
64020,1
64028,40
64035,54
64043,26
64051,-38
64059,-86
64067,-102
64075,-101
64082,-100
64090,-86
64098,-50
64106,-59
64114,-209
64121,-262
64129,335
64137,1543
64145,2232
64153,1433
64160,-385
64168,-1725
64176,-1761
64184,-1051
64192,-511
64200,-336
64207,-263
64215,-175
64223,-116
64231,-77
64239,-51
64246,-32
64254,-15
64262,-1
64270,10
64278,16
64285,32
64293,48
64301,59
64309,65
64317,82
64325,97
64332,105
64340,95
64348,69
64356,38
64364,7
64371,-31
64379,-80
64387,-132
64395,-176
64403,-208
64410,-234
64418,-252
64426,-254
64434,-242
64442,-222
64450,-200
64457,-172
64465,-150
64473,-128
64481,-107
64489,-88
64496,-73
64504,-63
64512,-63
64520,-64
64528,-60
64535,-56
64543,-57
64551,-57
64559,-53
64567,-49
64575,-46
64582,-55
64590,-61
64598,-61
64606,-61
64614,-67
64621,-74
64629,-69
64637,-65
64645,-71
64653,-77
64660,-76
64668,-64
64676,-53
64684,-56
64692,-62
64700,-64
64707,-58
64715,-43
64723,-36
64731,-42
64739,-62
64746,-76
64754,-79
64762,-73
64770,-68
64778,-46
64785,-9
64793,31
64801,30
64809,-16
64817,-77
64825,-104
64832,-96
64840,-91
64848,-81
64856,-54
64864,-25
64871,-95
64879,-277
64887,-129
64895,778
64903,1890
64910,2004
64918,713
64926,-982
64934,-1773
64942,-1452
64950,-794
64957,-414
64965,-260
64973,-169
64981,-118
64989,-85
64996,-37
65004,-4
65012,10
65020,-1
65028,-11
65035,1
65043,21
65051,34
65059,50
65067,63
65075,87
65082,103
65090,112
65098,103
65106,76
65114,43
65121,18
65129,-4
65137,-44
65145,-102
65153,-148
65160,-169
65168,-178
65176,-200
65184,-231
65192,-233
65200,-216
65207,-191
65215,-173
65223,-160
65231,-132
65239,-95
65246,-73
65254,-76
65262,-69
65270,-45
65278,-20
65285,-17
65293,-31
65301,-46
65309,-53
65317,-63
65325,-69
65332,-59
65340,-47
65348,-50
65356,-58
65364,-65
65371,-68
65379,-73
65387,-71
65395,-62
65403,-57
65410,-58
65418,-63
65426,-64
65434,-63
65442,-65
65450,-76
65457,-77
65465,-67
65473,-63
65481,-66
65489,-41
65496,6
65504,41
65512,28
65520,-29
65528,-85
65535,-104
65543,-98
65551,-83
65559,-67
65567,-48
65575,-46
65582,-156
65590,-276
65598,93
65606,1140
65614,2016
65621,1634
65629,69
65637,-1395
65645,-1726
65653,-1155
65660,-556
65668,-308
65676,-228
65684,-178
65692,-144
65700,-104
65707,-61
65715,-19
65723,8
65731,0
65739,-22
65746,-24
65754,6
65762,38
65770,53
65778,56
65785,66
65793,71
65801,70
65809,62
65817,57
65825,37
65832,-1
65840,-36
65848,-70
65856,-107
65864,-154
65871,-197
65879,-211
65887,-216
65895,-221
65903,-227
65910,-221
65918,-201
65926,-182
65934,-163
65942,-143
65950,-116
65957,-97
65965,-85
65973,-72
65981,-54
65989,-35
65996,-31
66004,-46
66012,-60
66020,-60
66028,-53
66035,-50
66043,-58
66051,-61
66059,-60
66067,-59
66075,-59
66082,-46
66090,-33
66098,-45
66106,-88
66114,-109
66121,-80
66129,-43
66137,-48
66145,-78
66153,-93
66160,-90
66168,-74
66176,-44
66184,-1
66192,28
66200,-1
66207,-63
66215,-95
66223,-91
66231,-89
66239,-86
66246,-64
66254,-37
66262,-96
66270,-247
66278,-58
66285,813
66293,1778
66301,1730
66309,425
66317,-1097
66325,-1671
66332,-1253
66340,-649
66348,-356
66356,-255
66364,-181
66371,-126
66379,-87
66387,-59
66395,-49
66403,-39
66410,-28
66418,-17
66426,-4
66434,9
66442,23
66450,37
66457,53
66465,58
66473,57
66481,56
66489,55
66496,43
66504,22
66512,-1
66520,-29
66528,-64
66535,-102
66543,-120
66551,-132
66559,-159
66567,-199
66575,-222
66582,-211
66590,-182
66598,-162
66606,-144
66614,-131
66621,-112
66629,-94
66637,-78
66645,-66
66653,-66
66660,-72
66668,-67
66676,-57
66684,-47
66692,-49
66700,-64
66707,-74
66715,-82
66723,-82
66731,-86
66739,-92
66746,-98
66754,-100
66762,-101
66770,-97
66778,-95
66785,-89
66793,-88
66801,-89
66809,-77
66817,-37
66825,20
66832,51
66840,25
66848,-37
66856,-82
66864,-92
66871,-92
66879,-91
66887,-65
66895,-10
66903,-22
66910,-180
66918,-155
66926,555
66934,1640
66942,1946
66950,852
66957,-836
66965,-1755
66973,-1489
66981,-779
66989,-365
66996,-249
67004,-182
67012,-122
67020,-86
67028,-53
67035,-23
67043,7
67051,24
67059,31
67067,36
67075,50
67082,56
67090,62
67098,77
67106,96
67114,114
67121,131
67129,138
67137,125
67145,79
67153,25
67160,-13
67168,-45
67176,-83
67184,-127
67192,-161
67200,-186
67207,-197
67215,-209
67223,-210
67231,-207
67239,-200
67246,-184
67254,-151
67262,-116
67270,-92
67278,-83
67285,-66
67293,-41
67301,-27
67309,-33
67317,-54
67325,-65
67332,-59
67340,-56
67348,-59
67356,-58
67364,-60
67371,-59
67379,-63
67387,-78
67395,-101
67403,-108
67410,-98
67418,-91
67426,-96
67434,-89
67442,-56
67450,12
67457,67
67465,68
67473,12
67481,-67
67489,-117
67496,-117
67504,-84
67512,-33
67520,5
67528,-24
67535,-202
67543,-261
67551,367
67559,1558
67567,2162
67575,1271
67582,-537
67590,-1769
67598,-1704
67606,-960
67614,-421
67621,-247
67629,-172
67637,-116
67645,-76
67653,-37
67660,-9
67668,1
67676,6
67684,11
67692,18
67700,26
67707,34
67715,45
67723,64
67731,89
67739,106
67746,114
67754,108
67762,95
67770,70
67778,28
67785,-23
67793,-67
67801,-109
67809,-141
67817,-175
67825,-197
67832,-205
67840,-216
67848,-219
67856,-213
67864,-191
67871,-165
67879,-147
67887,-123
67895,-85
67903,-50
67910,-45
67918,-58
67926,-54
67934,-33
67942,-19
67950,-31
67957,-46
67965,-41
67973,-23
67981,-11
67989,-15
67996,-47
68004,-99
68012,-121
68020,-100
68028,-59
68035,-40
68043,-34
68051,-4
68059,48
68067,59
68075,5
68082,-66
68090,-99
68098,-88
68106,-79
68114,-87
68121,-70
68129,-11
68137,-31
68145,-236
68153,-226
68160,583
68168,1835
68176,2234
68184,1054
68192,-829
68200,-1884
68207,-1638
68215,-901
68223,-457
68231,-301
68239,-185
68246,-108
68254,-94
68262,-91
68270,-70
68278,-40
68285,-29
68293,-31
68301,-4
68309,32
68317,33
68325,11
68332,21
68340,64
68348,111
68356,119
68364,89
68371,38
68379,-13
68387,-49
68395,-62
68403,-68
68410,-89
68418,-127
68426,-163
68434,-190
68442,-201
68450,-211
68457,-216
68465,-205
68473,-177
68481,-147
68489,-128
68496,-116
68504,-99
68512,-79
68520,-65
68528,-56
68535,-42
68543,-36
68551,-43
68559,-45
68567,-38
68575,-36
68582,-47
68590,-64
68598,-79
68606,-94
68614,-114
68621,-124
68629,-102
68637,-62
68645,-13
68653,39
68660,55
68668,29
68676,-22
68684,-68
68692,-65
68700,-25
68707,-11
68715,-31
68723,-40
68731,-7
68739,-20
68746,-175
68754,-101
68762,727
68770,1901
68778,2139
68785,863
68793,-971
68801,-1900
68809,-1563
68817,-799
68825,-364
68832,-233
68840,-163
68848,-109
68856,-73
68864,-55
68871,-40
68879,-30
68887,-20
68895,-20
68903,-21
68910,-6
68918,22
68926,39
68934,32
68942,23
68950,30
68957,41
68965,44
68973,24
68981,-13
68989,-43
68996,-77
69004,-118
69012,-154
69020,-194
69028,-217
69035,-226
69043,-230
69051,-249
69059,-290
69067,-318
69075,-296
69082,-244
69090,-189
69098,-146
69106,-104
69114,-87
69121,-81
69129,-57
69137,-30
69145,-25
69153,-49
69160,-75
69168,-69
69176,-47
69184,-40
69192,-59
69200,-93
69207,-119
69215,-101
69223,-42
69231,7
69239,10
69246,-20
69254,-54
69262,-82
69270,-104
69278,-136
69285,-148
69293,-100
69301,-35
69309,-110
69317,-317
69325,-80
69332,1001
69340,2110
69348,1905
69356,229
69364,-1534
69371,-2038
69379,-1404
69387,-641
69395,-286
69403,-161
69410,-79
69418,-30
69426,6
69434,-2
69442,-39
69450,-32
69457,27
69465,79
69473,67
69481,20
69489,14
69496,66
69504,122
69512,138
69520,121
69528,95
69535,72
69543,46
69551,1
69559,-54
69567,-99
69575,-127
69582,-157
69590,-184
69598,-210
69606,-242
69614,-261
69621,-266
69629,-248
69637,-223
69645,-197
69653,-172
69660,-150
69668,-114
69676,-82
69684,-55
69692,-36
69700,-31
69707,-29
69715,-33
69723,-38
69731,-40
69739,-43
69746,-43
69754,-45
69762,-54
69770,-68
69778,-87
69785,-98
69793,-103
69801,-114
69809,-114
69817,-73
69825,3
69832,64
69840,52
69848,-13
69856,-77
69864,-98
69871,-88
69879,-80
69887,-46
69895,3
69903,-52
69910,-266
69918,-231
69926,660
69934,2005
69942,2397
69950,1087
69957,-933
69965,-2021
69973,-1705
69981,-886
69989,-407
69996,-283
70004,-219
70012,-150
70020,-83
70028,-25
70035,-4
70043,-8
70051,-5
70059,0
70067,14
70075,29
70082,39
70090,59
70098,84
70106,111
70114,133
70121,133
70129,114
70137,74
70145,34
70153,1
70160,-25
70168,-47
70176,-90
70184,-148
70192,-190
70200,-222
70207,-251
70215,-269
70223,-258
70231,-201
70239,-146
70246,-127
70254,-145
70262,-158
70270,-142
70278,-111
70285,-90
70293,-83
70301,-77
70309,-61
70317,-50
70325,-49
70332,-57
70340,-76
70348,-85
70356,-80
70364,-58
70371,-45
70379,-60
70387,-87
70395,-89
70403,-56
70410,-7
70418,30
70426,50
70434,41
70442,-7
70450,-68
70457,-99
70465,-95
70473,-84
70481,-73
70489,-31
70496,-28
70504,-191
70512,-285
70520,321
70528,1584
70535,2301
70543,1437
70551,-450
70559,-1803
70567,-1816
70575,-1080
70582,-514
70590,-305
70598,-209
70606,-134
70614,-80
70621,-37
70629,-44
70637,-88
70645,-91
70653,-42
70660,16
70668,48
70676,31
70684,2
70692,2
70700,44
70707,110
70715,146
70723,120
70731,67
70739,26
70746,-3
70754,-20
70762,-50
70770,-109
70778,-175
70785,-210
70793,-211
70801,-209
70809,-215
70817,-233
70825,-239
70832,-227
70840,-201
70848,-155
70856,-108
70864,-89
70871,-98
70879,-103
70887,-79
70895,-42
70903,-21
70910,-25
70918,-55
70926,-83
70934,-98
70942,-90
70950,-57
70957,-33
70965,-39
70973,-70
70981,-98
70989,-101
70996,-108
71004,-130
71012,-130
71020,-113
71028,-88
71035,-94
71043,-128
71051,-139
71059,-125
71067,-96
71075,-74
71082,-43
71090,11
71098,32
71106,15
71114,-28
71121,-58
71129,-57
71137,-52
71145,-35
71153,12
71160,57
71168,-19
71176,-229
71184,-88
71192,839
71200,1977
71207,2072
71215,703
71223,-1051
71231,-1823
71239,-1437
71246,-743
71254,-385
71262,-269
71270,-173
71278,-94
71285,-44
71293,-23
71301,-24
71309,-13
71317,-10
71325,-17
71332,-10
71340,20
71348,57
71356,80
71364,90
71371,87
71379,78
71387,73
71395,80
71403,78
71410,59
71418,31
71426,-7
71434,-55
71442,-110
71450,-143
71457,-163
71465,-187
71473,-220
71481,-243
71489,-228
71496,-209
71504,-192
71512,-177
71520,-152
71528,-122
71535,-114
71543,-123
71551,-123
71559,-107
71567,-70
71575,-37
71582,-24
71590,-21
71598,-21
71606,-33
71614,-50
71621,-54
71629,-40
71637,-21
71645,-18
71653,-41
71660,-62
71668,-59
71676,-55
71684,-64
71692,-77
71700,-79
71707,-74
71715,-66
71723,-56
71731,-50
71739,-52
71746,-58
71754,-74
71762,-73
71770,-64
71778,-70
71785,-70
71793,-26
71801,29
71809,50
71817,14
71825,-53
71832,-87
71840,-83
71848,-83
71856,-86
71864,-58
71871,-3
71879,-47
71887,-236
71895,-173
71903,661
71910,1853
71918,2127
71926,880
71934,-945
71942,-1889
71950,-1586
71957,-843
71965,-406
71973,-265
71981,-195
71989,-133
71996,-80
72004,-32
72012,-19
72020,-25
72028,-20
72035,2
72043,26
72051,29
72059,18
72067,29
72075,65
72082,103
72090,119
72098,106
72106,82
72114,59
72121,41
72129,21
72137,-5
72145,-36
72153,-91
72160,-145
72168,-174
72176,-188
72184,-204
72192,-234
72200,-258
72207,-253
72215,-221
72223,-192
72231,-169
72239,-141
72246,-98
72254,-66
72262,-58
72270,-66
72278,-65
72285,-50
72293,-33
72301,-28
72309,-28
72317,-37
72325,-48
72332,-50
72340,-40
72348,-33
72356,-40
72364,-57
72371,-63
72379,-66
72387,-65
72395,-71
72403,-74
72410,-71
72418,-65
72426,-56
72434,-63
72442,-83
72450,-87
72457,-74
72465,-55
72473,-56
72481,-86
72489,-91
72496,-71
72504,-59
72512,-52
72520,-23
72528,28
72535,44
72543,1
72551,-65
72559,-105
72567,-103
72575,-95
72582,-84
72590,-53
72598,-20
72606,-90
72614,-282
72621,-164
72629,732
72637,1899
72645,2076
72653,762
72660,-1022
72668,-1854
72676,-1485
72684,-776
72692,-390
72700,-265
72707,-180
72715,-113
72723,-80
72731,-49
72739,-20
72746,-6
72754,-12
72762,-18
72770,-5
72778,10
72785,23
72793,28
72801,43
72809,80
72817,116
72825,130
72832,101
72840,57
72848,20
72856,-3
72864,-20
72871,-39
72879,-82
72887,-140
72895,-188
72903,-209
72910,-206
72918,-201
72926,-212
72934,-227
72942,-226
72950,-185
72957,-137
72965,-108
72973,-105
72981,-108
72989,-86
72996,-59
73004,-41
73012,-38
73020,-39
73028,-35
73035,-42
73043,-51
73051,-60
73059,-59
73067,-47
73075,-39
73082,-56
73090,-75
73098,-92
73106,-96
73114,-89
73121,-77
73129,-67
73137,-63
73145,-65
73153,-65
73160,-71
73168,-91
73176,-96
73184,-75
73192,-48
73200,-47
73207,-65
73215,-84
73223,-82
73231,-74
73239,-83
73246,-75
73254,-34
73262,19
73270,36
73278,-15
73285,-74
73293,-80
73301,-64
73309,-74
73317,-101
73325,-82
73332,-29
73340,-56
73348,-221
73356,-159
73364,615
73371,1726
73379,2011
73387,870
73395,-858
73403,-1787
73410,-1518
73418,-804
73426,-370
73434,-244
73442,-189
73450,-134
73457,-83
73465,-46
73473,-35
73481,-32
73489,-15
73496,5
73504,14
73512,18
73520,29
73528,44
73535,47
73543,57
73551,82
73559,97
73567,93
73575,73
73582,47
73590,16
73598,-24
73606,-50
73614,-69
73621,-106
73629,-167
73637,-225
73645,-241
73653,-224
73660,-204
73668,-196
73676,-204
73684,-200
73692,-172
73700,-138
73707,-111
73715,-97
73723,-95
73731,-90
73739,-78
73746,-64
73754,-56
73762,-55
73770,-59
73778,-61
73785,-54
73793,-45
73801,-48
73809,-47
73817,-48
73825,-58
73832,-75
73840,-90
73848,-81
73856,-59
73864,-47
73871,-48
73879,-55
73887,-62
73895,-70
73903,-72
73910,-57
73918,-44
73926,-51
73934,-69
73942,-80
73950,-69
73957,-23
73965,31
73973,53
73981,20
73989,-45
73996,-99
74004,-109
74012,-91
74020,-65
74028,-27
74035,0
74043,-97
74051,-268
74059,-1
74067,1043
74075,2096
74082,1901
74090,299
74098,-1406
74106,-1929
74114,-1348
74121,-644
74129,-326
74137,-230
74145,-145
74153,-83
74160,-47
74168,-22
74176,-10
74184,11
74192,35
74200,44
74207,36
74215,32
74223,37
74231,57
74239,84
74246,106
74254,121
74262,128
74270,127
74278,103
74285,64
74293,30
74301,-8
74309,-52
74317,-106
74325,-155
74332,-198
74340,-235
74348,-260
74356,-268
74364,-264
74371,-254
74379,-238
74387,-209
74395,-173
74403,-142
74410,-112
74418,-87
74426,-74
74434,-77
74442,-76
74450,-56
74457,-29
74465,-13
74473,-22
74481,-47
74489,-72
74496,-84
74504,-71
74512,-43
74520,-22
74528,-29
74535,-56
74543,-73
74551,-75
74559,-78
74567,-78
74575,-73
74582,-64
74590,-63
74598,-76
74606,-104
74614,-115
74621,-71
74629,5
74637,46
74645,7
74653,-79
74660,-126
74668,-110
74676,-82
74684,-73
74692,-57
74700,-20
74707,-89
74715,-256
74723,-1
74731,1071
74739,2180
74746,1983
74754,294
74762,-1508
74770,-2048
74778,-1414
74785,-643
74793,-299
74801,-184
74809,-97
74817,-53
74825,-29
74832,-10
74840,-18
74848,-15
74856,15
74864,49
74871,67
74879,58
74887,51
74895,62
74903,80
74910,105
74918,124
74926,130
74934,118
74942,82
74950,39
74957,-5
74965,-35
74973,-69
74981,-121
74989,-184
74996,-241
75004,-290
75012,-316
75020,-318
75028,-273
75035,-228
75043,-206
75051,-199
75059,-173
75067,-145
75075,-127
75082,-117
75090,-80
75098,-47
75106,-36
75114,-44
75121,-41
75129,-25
75137,-19
75145,-31
75153,-38
75160,-41
75168,-52
75176,-83
75184,-94
75192,-80
75200,-58
75207,-70
75215,-104
75223,-117
75231,-106
75239,-98
75246,-97
75254,-61
75262,10
75270,66
75278,51
75285,-17
75293,-76
75301,-84
75309,-82
75317,-86
75325,-72
75332,-20
75340,-39
75348,-222
75356,-211
75364,596
75371,1879
75379,2284
75387,1044
75395,-937
75403,-2036
75410,-1739
75418,-888
75426,-364
75434,-209
75442,-146
75450,-87
75457,-47
75465,-19
75473,-16
75481,-11
75489,13
75496,31
75504,31
75512,27
75520,35
75528,60
75535,82
75543,98
75551,120
75559,132
75567,138
75575,126
75582,91
75590,39
75598,-17
75606,-75
75614,-121
75621,-168
75629,-206
75637,-243
75645,-269
75653,-282
75660,-285
75668,-268
75676,-245
75684,-209
75692,-172
75700,-156
75707,-141
75715,-107
75723,-58
75731,-12
75739,-4
75746,-31
75754,-64
75762,-62
75770,-35
75778,-24
75785,-33
75793,-61
75801,-82
75809,-78
75817,-65
75825,-50
75832,-51
75840,-75
75848,-94
75856,-87
75864,-78
75871,-76
75879,-57
75887,-1
75895,53
75903,57
75910,15
75918,-33
75926,-59
75934,-68
75942,-86
75950,-74
75957,-17
75965,24
75973,-107
75981,-277
75989,151
75996,1363
76004,2340
76012,1827
76020,-31
76028,-1691
76035,-1983
76043,-1261
76051,-569
76059,-308
76067,-237
76075,-162
76082,-93
76090,-35
76098,-12
76106,-18
76114,-18
76121,-8
76129,12
76137,31
76145,49
76153,65
76160,75
76168,83
76176,91
76184,99
76192,108
76200,100
76207,77
76215,42
76223,4
76231,-26
76239,-76
76246,-154
76254,-232
76262,-260
76270,-254
76278,-248
76285,-252
76293,-260
76301,-251
76309,-217
76317,-184
76325,-149
76332,-113
76340,-81
76348,-72
76356,-87
76364,-96
76371,-68
76379,-17
76387,10
76395,-9
76403,-50
76410,-68
76418,-68
76426,-55
76434,-46
76442,-55
76450,-63
76457,-72
76465,-88
76473,-105
76481,-115
76489,-116
76496,-118
76504,-90
76512,-28
76520,38
76528,60
76535,8
76543,-68
76551,-92
76559,-83
76567,-77
76575,-71
76582,-39
76590,-10
76598,-128
76606,-307
76614,78
76621,1294
76629,2352
76637,1914
76645,54
76653,-1669
76660,-2010
76668,-1288
76676,-588
76684,-329
76692,-238
76700,-149
76707,-101
76715,-75
76723,-68
76731,-66
76739,-57
76746,-26
76754,10
76762,32
76770,34
76778,18
76785,9
76793,22
76801,68
76809,118
76817,129
76825,99
76832,70
76840,27
76848,-33
76856,-92
76864,-141
76871,-182
76879,-223
76887,-263
76895,-282
76903,-290
76910,-283
76918,-264
76926,-236
76934,-223
76942,-217
76950,-184
76957,-142
76965,-117
76973,-111
76981,-99
76989,-67
76996,-32
77004,-18
77012,-16
77020,-7
77028,-8
77035,-19
77043,-27
77051,-23
77059,-17
77067,-18
77075,-40
77082,-62
77090,-73
77098,-86
77106,-110
77114,-128
77121,-96
77129,-10
77137,71
77145,82
77153,12
77160,-81
77168,-124
77176,-103
77184,-77
77192,-56
77200,-34
77207,-30
77215,-172
77223,-308
77231,166
77239,1406
77246,2346
77254,1750
77262,-147
77270,-1763
77278,-1981
77285,-1215
77293,-513
77301,-244
77309,-153
77317,-82
77325,-47
77332,-19
77340,-23
77348,-43
77356,-22
77364,40
77371,100
77379,111
77387,62
77395,12
77403,42
77410,130
77418,186
77426,172
77434,118
77442,63
77450,30
77457,-5
77465,-48
77473,-58
77481,-63
77489,-103
77496,-148
77504,-176
77512,-189
77520,-204
77528,-217
77535,-218
77543,-192
77551,-177
77559,-173
77567,-139
77575,-59
77582,-1
77590,5
77598,-36
77606,-67
77614,-64
77621,-44
77629,-38
77637,-41
77645,-48
77653,-52
77660,-53
77668,-58
77676,-89
77684,-114
77692,-119
77700,-103
77707,-85
77715,-89
77723,-119
77731,-152
77739,-114
77746,3
77754,104
77762,101
77770,-13
77778,-133
77785,-157
77793,-98
77801,-57
77809,-63
77817,-56
77825,-69
77832,-216
77840,-232
77848,472
77856,1716
77864,2236
77871,1159
77879,-771
77887,-1935
77895,-1710
77903,-881
77910,-362
77918,-235
77926,-197
77934,-144
77942,-79
77950,-15
77957,9
77965,-9
77973,-33
77981,-43
77989,-21
77996,4
78004,29
78012,41
78020,56
78028,76
78035,82
78043,70
78051,72
78059,76
78067,55
78075,3
78082,-58
78090,-95
78098,-102
78106,-111
78114,-142
78121,-187
78129,-222
78137,-243
78145,-246
78153,-230
78160,-202
78168,-169
78176,-142
78184,-132
78192,-120
78200,-84
78207,-23
78215,-7
78223,-40
78231,-76
78239,-75
78246,-34
78254,-5
78262,-18
78270,-61
78278,-92
78285,-99
78293,-90
78301,-82
78309,-100
78317,-114
78325,-120
78332,-134
78340,-138
78348,-127
78356,-115
78364,-91
78371,-35
78379,42
78387,70
78395,10
78403,-81
78410,-112
78418,-76
78426,-48
78434,-47
78442,-36
78450,-2
78457,-46
78465,-236
78473,-169
78481,680
78489,1864
78496,2079
78504,759
78512,-1066
78520,-1914
78528,-1501
78535,-725
78543,-315
78551,-208
78559,-143
78567,-93
78575,-62
78582,-42
78590,-22
78598,-13
78606,-28
78614,-32
78621,7
78629,52
78637,68
78645,57
78653,44
78660,47
78668,67
78676,82
78684,81
78692,59
78700,22
78707,-14
78715,-37
78723,-54
78731,-80
78739,-116
78746,-158
78754,-189
78762,-201
78770,-203
78778,-183
78785,-162
78793,-155
78801,-157
78809,-134
78817,-89
78825,-50
78832,-46
78840,-66
78848,-68
78856,-47
78864,-29
78871,-25
78879,-36
78887,-46
78895,-46
78903,-38
78910,-35
78918,-53
78926,-75
78934,-93
78942,-89
78950,-61
78957,-45
78965,-54
78973,-70
78981,-80
78989,-81
78996,-55
79004,10
79012,78
79020,88
79028,31
79035,-38
79043,-64
79051,-63
79059,-71
79067,-79
79075,-63
79082,-35
79090,-89
79098,-263
79106,-129
79114,775
79121,1911
79129,2005
79137,614
79145,-1163
79153,-1897
79160,-1428
79168,-690
79176,-333
79184,-222
79192,-133
79200,-89
79207,-80
79215,-62
79223,-40
79231,-9
79239,13
79246,11
79254,-3
79262,-19
79270,-11
79278,32
79285,65
79293,76
79301,78
79309,77
79317,52
79325,10
79332,-28
79340,-52
79348,-53
79356,-58
79364,-77
79371,-115
79379,-166
79387,-207
79395,-220
79403,-224
79410,-228
79418,-211
79426,-170
79434,-126
79442,-103
79450,-99
79457,-83
79465,-48
79473,-16
79481,-12
79489,-42
79496,-74
79504,-88
79512,-84
79520,-81
79528,-76
79535,-59
79543,-55
79551,-70
79559,-91
79567,-98
79575,-98
79582,-111
79590,-122
79598,-119
79606,-103
79614,-99
79621,-103
79629,-105
79637,-85
79645,-37
79653,6
79660,8
79668,-33
79676,-79
79684,-95
79692,-94
79700,-86
79707,-66
79715,-23
79723,-29
79731,-191
79739,-252
79746,360
79754,1518
79762,2089
79770,1198
79778,-563
79785,-1744
79793,-1666
79801,-953
79809,-431
79817,-239
79825,-156
79832,-110
79840,-91
79848,-68
79856,-60
79864,-58
79871,-63
79879,-37
79887,12
79895,36
79903,24
79910,13
79918,23
79926,51
79934,70
79942,68
79950,45
79957,18
79965,-9
79973,-28
79981,-37
79989,-60
79996,-98
80004,-131
80012,-167
80020,-181
80028,-177
80035,-181
80043,-201
80051,-209
80059,-198
80067,-187
80075,-163
80082,-117
80090,-68
80098,-46
80106,-48
80114,-47
80121,-34
80129,-13
80137,-8
80145,-5
80153,1
80160,1
80168,-7
80176,-17
80184,-31
80192,-40
80200,-38
80207,-45
80215,-75
80223,-94
80231,-100
80239,-88
80246,-72
80254,-61
80262,-58
80270,-39
80278,-8
80285,21
80293,14
80301,-32
80309,-76
80317,-87
80325,-84
80332,-90
80340,-84
80348,-43
80356,-20
80364,-137
80371,-226
80379,222
80387,1221
80395,1857
80403,1247
80410,-277
80418,-1462
80426,-1539
80434,-935
80442,-441
80450,-267
80457,-204
80465,-146
80473,-98
80481,-71
80489,-61
80496,-46
80504,-22
80512,-8
80520,-21
80528,-29
80535,-8
80543,20
80551,23
80559,8
80567,15
80575,47
80582,58
80590,35
80598,-1
80606,-21
80614,-30
80621,-48
80629,-69
80637,-87
80645,-115
80653,-148
80660,-173
80668,-172
80676,-167
80684,-183
80692,-197
80700,-181
80707,-149
80715,-120
80723,-110
80731,-104
80739,-95
80746,-84
80754,-59
80762,-28
80770,-31
80778,-74
80785,-114
80793,-104
80801,-61
80809,-41
80817,-61
80825,-90
80832,-89
80840,-60
80848,-47
80856,-71
80864,-71
80871,-7
80879,73
80887,81
80895,8
80903,-69
80910,-94
80918,-87
80926,-96
80934,-101
80942,-81
80950,-45
80957,-44
80965,-166
80973,-213
80981,295
80989,1284
80996,1819
81004,1123
81012,-378
81020,-1468
81028,-1478
81035,-862
81043,-377
81051,-194
81059,-145
81067,-135
81075,-121
81082,-79
81090,-31
81098,-14
81106,-51
81114,-80
81121,-27
81129,63
81137,70
81145,-16
81153,-75
81160,-52
81168,15
81176,46
81184,42
81192,62
81200,81
81207,41
81215,-40
81223,-114
81231,-144
81239,-145
81246,-140
81254,-152
81262,-179
81270,-198
81278,-205
81285,-187
81293,-161
81301,-147
81309,-140
81317,-131
81325,-122
81332,-105
81340,-79
81348,-41
81356,-26
81364,-42
81371,-55
81379,-53
81387,-44
81395,-54
81403,-72
81410,-77
81418,-75
81426,-76
81434,-90
81442,-101
81450,-102
81457,-97
81465,-97
81473,-87
81481,-56
81489,7
81496,67
81504,72
81512,23
81520,-39
81528,-69
81535,-59
81543,-55
81551,-50
81559,-24
81567,5
81575,-79
81582,-243
81590,52
81598,1120
81606,2132
81614,1834
81621,160
81629,-1516
81637,-1943
81645,-1291
81653,-572
81660,-272
81668,-177
81676,-98
81684,-50
81692,-7
81700,12
81707,11
81715,15
81723,24
81731,38
81739,57
81746,68
81754,79
81762,89
81770,98
81778,109
81785,122
81793,123
81801,108
81809,72
81817,27
81825,-12
81832,-45
81840,-86
81848,-136
81856,-181
81864,-205
81871,-214
81879,-222
81887,-238
81895,-252
81903,-247
81910,-222
81918,-191
81926,-161
81934,-145
81942,-124
81950,-97
81957,-69
81965,-49
81973,-37
81981,-37
81989,-45
81996,-56
82004,-66
82012,-72
82020,-75
82028,-85
82035,-97
82043,-105
82051,-100
82059,-88
82067,-70
82075,-37
82082,5
82090,18
82098,-18
82106,-80
82114,-112
82121,-116
82129,-103
82137,-87
82145,-47
82153,-22
82160,-148
82168,-310
82176,101
82184,1300
82192,2283
82200,1792
82207,-29
82215,-1665
82223,-1961
82231,-1251
82239,-576
82246,-308
82254,-204
82262,-122
82270,-81
82278,-55
82285,-29
82293,-15
82301,-7
82309,-1
82317,5
82325,16
82332,32
82340,44
82348,69
82356,92
82364,113
82371,122
82379,122
82387,102
82395,67
82403,20
82410,-25
82418,-62
82426,-99
82434,-139
82442,-188
82450,-230
82457,-254
82465,-264
82473,-265
82481,-259
82489,-230
82496,-190
82504,-161
82512,-147
82520,-133
82528,-102
82535,-54
82543,-25
82551,-28
82559,-61
82567,-81
82575,-70
82582,-38
82590,-14
82598,-28
82606,-67
82614,-94
82621,-112
82629,-119
82637,-125
82645,-136
82653,-139
82660,-113
82668,-48
82676,7
82684,2
82692,-70
82700,-140
82707,-146
82715,-106
82723,-55
82731,11
82739,98
82746,87
82754,-104
82762,-5
82770,972
82778,2267
82785,2441
82793,902
82801,-1156
82809,-2100
82817,-1651
82825,-820
82832,-392
82840,-278
82848,-200
82856,-143
82864,-93
82871,-38
82879,-15
82887,-10
82895,-22
82903,-52
82910,-71
82918,-81
82926,-88
82934,-76
82942,-36
82950,12
82957,43
82965,51
82973,49
82981,33
82989,12
82996,-20
83004,-46
83012,-76
83020,-115
83028,-157
83035,-198
83043,-245
83051,-269
83059,-270
83067,-245
83075,-221
83082,-204
83090,-183
83098,-159
83106,-135
83114,-111
83121,-81
83129,-46
83137,-30
83145,-29
83153,-21
83160,-12
83168,-11
83176,-27
83184,-36
83192,-25
83200,-15
83207,-29
83215,-57
83223,-76
83231,-78
83239,-76
83246,-67
83254,-35
83262,11
83270,41
83278,17
83285,-42
83293,-84
83301,-95
83309,-87
83317,-78
83325,-53
83332,-4
83340,-49
83348,-254
83356,-185
83364,713
83371,1974
83379,2245
83387,920
83395,-969
83403,-1901
83410,-1549
83418,-801
83426,-382
83434,-241
83442,-148
83450,-84
83457,-51
83465,-34
83473,-32
83481,-30
83489,-18
83496,-12
83504,-3
83512,1
83520,9
83528,27
83535,48
83543,61
83551,71
83559,74
83567,77
83575,64
83582,39
83590,11
83598,-20
83606,-58
83614,-98
83621,-147
83629,-190
83637,-225
83645,-234
83653,-231
83660,-222
83668,-207
83676,-183
83684,-152
83692,-120
83700,-106
83707,-94
83715,-76
83723,-56
83731,-42
83739,-39
83746,-41
83754,-44
83762,-40
83770,-38
83778,-37
83785,-37
83793,-45
83801,-55
83809,-63
83817,-68
83825,-64
83832,-55
83840,-48
83848,-32
83856,2
83864,43
83871,53
83879,20
83887,-34
83895,-70
83903,-74
83910,-68
83918,-64
83926,-40
83934,6
83942,-27
83950,-221
83957,-189
83965,663
83973,1948
83981,2320
83989,1064
83996,-875
84004,-1921
84012,-1631
84020,-864
84028,-420
84035,-284
84043,-199
84051,-128
84059,-81
84067,-42
84075,-28
84082,-21
84090,-6
84098,14
84106,31
84114,32
84121,34
84129,52
84137,73
84145,89
84153,97
84160,99
84168,103
84176,95
84184,73
84192,42
84200,4
84207,-36
84215,-85
84223,-137
84231,-180
84239,-208
84246,-221
84254,-228
84262,-230
84270,-217
84278,-194
84285,-165
84293,-136
84301,-113
84309,-92
84317,-78
84325,-71
84332,-63
84340,-51
84348,-38
84356,-38
84364,-42
84371,-43
84379,-43
84387,-46
84395,-54
84403,-61
84410,-70
84418,-83
84426,-98
84434,-103
84442,-107
84450,-110
84457,-93
84465,-40
84473,22
84481,36
84489,-8
84496,-75
84504,-110
84512,-106
84520,-103
84528,-97
84535,-66
84543,-41
84551,-157
84559,-350
84567,5
84575,1229
84582,2367
84590,2047
84598,228
84606,-1582
84614,-2059
84621,-1416
84629,-703
84637,-416
84645,-311
84653,-209
84660,-129
84668,-71
84676,-51
84684,-56
84692,-44
84700,-18
84707,-4
84715,-13
84723,-21
84731,6
84739,51
84746,78
84754,89
84762,78
84770,78
84778,74
84785,62
84793,43
84801,6
84809,-44
84817,-101
84825,-150
84832,-189
84840,-216
84848,-231
84856,-255
84864,-275
84871,-276
84879,-261
84887,-227
84895,-192
84903,-166
84910,-145
84918,-124
84926,-106
84934,-92
84942,-82
84950,-67
84957,-52
84965,-45
84973,-45
84981,-56
84989,-65
84996,-71
85004,-72
85012,-74
85020,-92
85028,-107
85035,-103
85043,-101
85051,-106
85059,-113
85067,-72
85075,-5
85082,23
85090,-13
85098,-77
85106,-106
85114,-102
85121,-93
85129,-79
85137,-48
85145,-21
85153,-138
85160,-314
85168,62
85176,1256
85184,2288
85192,1855
85200,23
85207,-1677
85215,-2030
85223,-1324
85231,-617
85239,-342
85246,-241
85254,-142
85262,-67
85270,-27
85278,-42
85285,-78
85293,-77
85301,-44
85309,-6
85317,18
85325,33
85332,52
85340,68
85348,85
85356,95
85364,104
85371,107
85379,91
85387,63
85395,22
85403,-17
85410,-54
85418,-99
85426,-141
85434,-183
85442,-213
85450,-225
85457,-227
85465,-227
85473,-221
85481,-210
85489,-176
85496,-148
85504,-119
85512,-96
85520,-74
85528,-58
85535,-42
85543,-27
85551,-17
85559,-17
85567,-27
85575,-31
85582,-28
85590,-39
85598,-68
85606,-87
85614,-71
85621,-39
85629,-24
85637,-43
85645,-82
85653,-104
85660,-100
85668,-99
85676,-116
85684,-117
85692,-53
85700,45
85707,91
85715,46
85723,-42
85731,-85
85739,-83
85746,-71
85754,-58
85762,-28
85770,-9
85778,-144
85785,-346
85793,-2
85801,1210
85809,2356
85817,2047
85825,240
85832,-1562
85840,-2029
85848,-1368
85856,-654
85864,-381
85871,-292
85879,-196
85887,-122
85895,-82
85903,-62
85910,-51
85918,-34
85926,-20
85934,-10
85942,-1
85950,10
85957,31
85965,48
85973,67
85981,82
85989,93
85996,101
86004,93
86012,63
86020,23
86028,-10
86035,-34
86043,-71
86051,-114
86059,-165
86067,-201
86075,-222
86082,-231
86090,-232
86098,-226
86106,-211
86114,-183
86121,-157
86129,-131
86137,-109
86145,-82
86153,-59
86160,-54
86168,-59
86176,-66
86184,-62
86192,-59
86200,-71
86207,-78
86215,-70
86223,-55
86231,-41
86239,-40
86246,-50
86254,-67
86262,-85
86270,-94
86278,-98
86285,-95
86293,-97
86301,-94
86309,-68
86317,-8
86325,49
86332,60
86340,17
86348,-38
86356,-65
86364,-69
86371,-72
86379,-64
86387,-27
86395,-5
86403,-143
86410,-306
86418,125
86426,1359
86434,2346
86442,1812
86450,-53
86457,-1686
86465,-1946
86473,-1228
86481,-571
86489,-333
86496,-243
86504,-151
86512,-97
86520,-59
86528,-34
86535,-29
86543,-23
86551,-11
86559,10
86567,33
86575,43
86582,46
86590,52
86598,70
86606,92
86614,104
86621,106
86629,97
86637,70
86645,31
86653,-7
86660,-44
86668,-83
86676,-127
86684,-169
86692,-200
86700,-221
86707,-234
86715,-251
86723,-253
86731,-236
86739,-209
86746,-178
86754,-151
86762,-121
86770,-100
86778,-86
86785,-73
86793,-61
86801,-58
86809,-57
86817,-52
86825,-42
86832,-39
86840,-51
86848,-65
86856,-78
86864,-86
86871,-95
86879,-100
86887,-103
86895,-111
86903,-116
86910,-118
86918,-121
86926,-114
86934,-75
86942,-12
86950,41
86957,33
86965,-34
86973,-96
86981,-115
86989,-107
86996,-97
87004,-73
87012,-29
87020,-31
87028,-200
87035,-268
87043,405
87051,1683
87059,2297
87067,1288
87075,-659
87082,-1922
87090,-1776
87098,-957
87106,-402
87114,-237
87121,-160
87129,-98
87137,-60
87145,-32
87153,-26
87160,-23
87168,4
87176,34
87184,45
87192,32
87200,20
87207,34
87215,56
87223,76
87231,86
87239,88
87246,80
87254,68
87262,39
87270,0
87278,-35
87285,-65
87293,-94
87301,-130
87309,-173
87317,-204
87325,-222
87332,-226
87340,-230
87348,-229
87356,-216
87364,-197
87371,-164
87379,-137
87387,-112
87395,-91
87403,-69
87410,-55
87418,-47
87426,-47
87434,-44
87442,-36
87450,-32
87457,-41
87465,-47
87473,-50
87481,-60
87489,-70
87496,-80
87504,-86
87512,-90
87520,-95
87528,-93
87535,-93
87543,-97
87551,-80
87559,-25
87567,44
87575,60
87582,7
87590,-59
87598,-82
87606,-78
87614,-87
87621,-94
87629,-62
87637,-12
87645,-102
87653,-284
87660,33
87668,1175
87676,2246
87684,1941
87692,212
87700,-1503
87707,-1934
87715,-1285
87723,-590
87731,-310
87739,-220
87746,-141
87754,-95
87762,-62
87770,-32
87778,-16
87785,-2
87793,6
87801,9
87809,18
87817,25
87825,46
87832,65
87840,63
87848,65
87856,72
87864,70
87871,57
87879,30
87887,-15
87895,-85
87903,-150
87910,-174
87918,-170
87926,-153
87934,-162
87942,-174
87950,-186
87957,-219
87965,-229
87973,-184
87981,-134
87989,-122
87996,-135
88004,-125
88012,-80
88020,-43
88028,-28
88035,-21
88043,-7
88051,0
88059,-7
88067,-13
88075,-25
88082,-45
88090,-64
88098,-71
88106,-60
88114,-39
88121,-46
88129,-78
88137,-112
88145,-105
88153,-66
88160,-58
88168,-79
88176,-90
88184,-51
88192,21
88200,64
88207,32
88215,-43
88223,-103
88231,-110
88239,-83
88246,-35
88254,-3
88262,-27
88270,-193
88278,-317
88285,216
88293,1474
88301,2322
88309,1633
88317,-228
88325,-1716
88332,-1850
88340,-1122
88348,-521
88356,-323
88364,-244
88371,-168
88379,-122
88387,-69
88395,-28
88403,-17
88410,-32
88418,-51
88426,-47
88434,-17
88442,6
88450,17
88457,29
88465,55
88473,80
88481,88
88489,72
88496,48
88504,24
88512,11
88520,-13
88528,-59
88535,-112
88543,-154
88551,-167
88559,-174
88567,-177
88575,-177
88582,-182
88590,-188
88598,-184
88606,-170
88614,-137
88621,-107
88629,-89
88637,-78
88645,-69
88653,-61
88660,-58
88668,-62
88676,-65
88684,-49
88692,-26
88700,-23
88707,-52
88715,-76
88723,-81
88731,-74
88739,-76
88746,-68
88754,-48
88762,-37
88770,-50
88778,-86
88785,-110
88793,-92
88801,-45
88809,12
88817,37
88825,22
88832,-28
88840,-103
88848,-158
88856,-164
88864,-114
88871,-38
88879,-8
88887,-138
88895,-271
88903,132
88910,1195
88918,1998
88926,1480
88934,-155
88942,-1555
88950,-1752
88957,-1102
88965,-507
88973,-286
88981,-221
88989,-173
88996,-140
89004,-82
89012,-38
89020,-29
89028,-43
89035,-54
89043,-39
89051,6
89059,44
89067,55
89075,42
89082,38
89090,53
89098,65
89106,67
89114,48
89121,13
89129,-15
89137,-31
89145,-41
89153,-63
89160,-105
89168,-133
89176,-143
89184,-141
89192,-157
89200,-175
89207,-179
89215,-171
89223,-152
89231,-135
89239,-114
89246,-88
89254,-62
89262,-38
89270,-27
89278,-38
89285,-44
89293,-34
89301,-19
89309,-18
89317,-31
89325,-43
89332,-39
89340,-33
89348,-56
89356,-101
89364,-126
89371,-106
89379,-60
89387,-16
89395,12
89403,19
89410,-1
89418,-58
89426,-115
89434,-133
89442,-127
89450,-112
89457,-89
89465,-56
89473,-21
89481,-75
89489,-280
89496,-218
89504,644
89512,1854
89520,2110
89528,833
89535,-970
89543,-1820
89551,-1410
89559,-634
89567,-236
89575,-152
89582,-116
89590,-73
89598,-18
89606,20
89614,9
89621,-21
89629,-37
89637,-43
89645,-38
89653,-22
89660,7
89668,37
89676,48
89684,45
89692,40
89700,29
89707,5
89715,-24
89723,-39
89731,-55
89739,-81
89746,-106
89754,-128
89762,-146
89770,-159
89778,-178
89785,-195
89793,-207
89801,-217
89809,-206
89817,-185
89825,-157
89832,-123
89840,-92
89848,-73
89856,-74
89864,-74
89871,-58
89879,-32
89887,-15
89895,-18
89903,-27
89910,-42
89918,-54
89926,-61
89934,-72
89942,-71
89950,-70
89957,-71
89965,-65
89973,-66
89981,-77
89989,-57
89996,-1
90004,59
90012,60
90020,0
90028,-54
90035,-71
90043,-77
90051,-97
90059,-107
90067,-45
90075,12
90082,-110
90090,-274
90098,186
90106,1414
90114,2289
90121,1622
90129,-272
90137,-1800
90145,-1913
90153,-1128
90160,-475
90168,-243
90176,-165
90184,-103
90192,-78
90200,-61
90207,-46
90215,-26
90223,7
90231,22
90239,24
90246,36
90254,42
90262,48
90270,54
90278,60
90285,71
90293,71
90301,68
90309,69
90317,55
90325,23
90332,-18
90340,-62
90348,-91
90356,-118
90364,-128
90371,-146
90379,-168
90387,-177
90395,-180
90403,-188
90410,-192
90418,-185
90426,-145
90434,-109
90442,-91
90450,-79
90457,-76
90465,-65
90473,-49
90481,-40
90489,-43
90496,-55
90504,-54
90512,-47
90520,-48
90528,-57
90535,-93
90543,-114
90551,-114
90559,-105
90567,-88
90575,-57
90582,-2
90590,38
90598,15
90606,-57
90614,-126
90621,-146
90629,-126
90637,-109
90645,-96
90653,-58
90660,-37
90668,-187
90676,-293
90684,299
90692,1576
90700,2327
90707,1463
90715,-518
90723,-1940
90731,-1898
90739,-1049
90746,-423
90754,-232
90762,-181
90770,-128
90778,-73
90785,-22
90793,-15
90801,-33
90809,-33
90817,-8
90825,30
90832,48
90840,44
90848,50
90856,66
90864,79
90871,74
90879,57
90887,54
90895,49
90903,34
90910,-3
90918,-51
90926,-76
90934,-90
90942,-123
90950,-166
90957,-194
90965,-188
90973,-172
90981,-182
90989,-196
90996,-198
91004,-180
91012,-161
91020,-140
91028,-103
91035,-74
91043,-61
91051,-60
91059,-61
91067,-40
91075,-28
91082,-41
91090,-60
91098,-72
91106,-71
91114,-68
91121,-70
91129,-81
91137,-90
91145,-89
91153,-89
91160,-74
91168,-21
91176,20
91184,15
91192,-35
91200,-96
91207,-112
91215,-107
91223,-105
91231,-100
91239,-68
91246,-8
91254,-92
91262,-322
91270,-137
91278,930
91285,2164
91293,2138
91301,513
91309,-1381
91317,-2060
91325,-1468
91332,-674
91340,-323
91348,-231
91356,-161
91364,-96
91371,-53
91379,-34
91387,-39
91395,-46
91403,-33
91410,9
91418,58
91426,77
91434,62
91442,49
91450,57
91457,72
91465,83
91473,78
91481,67
91489,45
91496,10
91504,-24
91512,-47
91520,-71
91528,-100
91535,-133
91543,-159
91551,-173
91559,-188
91567,-199
91575,-210
91582,-198
91590,-178
91598,-156
91606,-134
91614,-105
91621,-78
91629,-55
91637,-56
91645,-54
91653,-44
91660,-34
91668,-37
91676,-52
91684,-67
91692,-71
91700,-68
91707,-59
91715,-79
91723,-106
91731,-124
91739,-119
91746,-104
91754,-106
91762,-114
91770,-94
91778,-36
91785,27
91793,33
91801,-24
91809,-87
91817,-113
91825,-99
91832,-88
91840,-98
91848,-78
91856,-29
91864,-68
91871,-271
91879,-191
91887,722
91895,1970
91903,2203
91910,839
91918,-1064
91926,-1965
91934,-1565
91942,-788
91950,-373
91957,-254
91965,-161
91973,-77
91981,-27
91989,-9
91996,-16
92004,-17
92012,-6
92020,8
92028,24
92035,31
92043,39
92051,58
92059,72
92067,78
92075,75
92082,72
92090,68
92098,51
92106,20
92114,-14
92121,-42
92129,-67
92137,-95
92145,-114
92153,-133
92160,-158
92168,-184
92176,-198
92184,-203
92192,-197
92200,-186
92207,-171
92215,-139
92223,-101
92231,-79
92239,-77
92246,-78
92254,-74
92262,-61
92270,-41
92278,-44
92285,-54
92293,-55
92301,-50
92309,-51
92317,-59
92325,-73
92332,-69
92340,-61
92348,-73
92356,-94
92364,-93
92371,-70
92379,-60
92387,-77
92395,-94
92403,-88
92410,-45
92418,7
92426,42
92434,37
92442,-18
92450,-87
92457,-104
92465,-80
92473,-63
92481,-72
92489,-70
92496,-50
92504,-121
92512,-268
92520,17
92528,1038
92535,2019
92543,1763
92551,202
92559,-1392
92567,-1831
92575,-1262
92582,-602
92590,-318
92598,-219
92606,-146
92614,-93
92621,-65
92629,-54
92637,-59
92645,-43
92653,-13
92660,20
92668,37
92676,40
92684,37
92692,47
92700,65
92707,87
92715,93
92723,75
92731,41
92739,9
92746,-10
92754,-20
92762,-38
92770,-77
92778,-119
92785,-146
92793,-164
92801,-181
92809,-200
92817,-223
92825,-231
92832,-213
92840,-177
92848,-147
92856,-128
92864,-115
92871,-98
92879,-80
92887,-72
92895,-63
92903,-49
92910,-35
92918,-34
92926,-50
92934,-60
92942,-54
92950,-50
92957,-59
92965,-77
92973,-85
92981,-89
92989,-93
92996,-97
93004,-90
93012,-70
93020,-60
93028,-68
93035,-77
93043,-81
93051,-76
93059,-78
93067,-88
93075,-94
93082,-93
93090,-69
93098,-29
93106,12
93114,24
93121,-3
93129,-47
93137,-87
93145,-108
93153,-117
93160,-101
93168,-64
93176,-29
93184,-87
93192,-277
93200,-211
93207,632
93215,1833
93223,2130
93231,896
93239,-931
93246,-1873
93254,-1548
93262,-787
93270,-359
93278,-235
93285,-172
93293,-129
93301,-104
93309,-76
93317,-51
93325,-30
93332,-22
93340,-25
93348,-18
93356,-4
93364,19
93371,50
93379,65
93387,62
93395,52
93403,46
93410,55
93418,51
93426,24
93434,-9
93442,-39
93450,-58
93457,-79
93465,-115
93473,-159
93481,-198
93489,-196
93496,-189
93504,-194
93512,-211
93520,-215
93528,-182
93535,-148
93543,-122
93551,-93
93559,-72
93567,-71
93575,-84
93582,-91
93590,-84
93598,-68
93606,-58
93614,-38
93621,-20
93629,-22
93637,-59
93645,-98
93653,-106
93660,-81
93668,-54
93676,-58
93684,-78
93692,-88
93700,-89
93707,-80
93715,-78
93723,-84
93731,-84
93739,-70
93746,-50
93754,-57
93762,-61
93770,-26
93778,24
93785,31
93793,-25
93801,-93
93809,-136
93817,-163
93825,-157
93832,-111
93840,-43
93848,-90
93856,-278
93864,-111
93871,852
93879,1951
93887,1902
93895,396
93903,-1347
93910,-1955
93918,-1402
93926,-666
93934,-336
93942,-212
93950,-107
93957,-70
93965,-64
93973,-42
93981,-19
93989,-10
93996,-18
94004,-5
94012,43
94020,66
94028,60
94035,59
94043,78
94051,96
94059,94
94067,83
94075,68
94082,56
94090,51
94098,24
94106,-24
94114,-68
94121,-92
94129,-105
94137,-131
94145,-147
94153,-151
94160,-155
94168,-183
94176,-226
94184,-223
94192,-159
94200,-106
94207,-86
94215,-75
94223,-43
94231,-36
94239,-68
94246,-77
94254,-31
94262,27
94270,40
94278,-1
94285,-35
94293,-41
94301,-60
94309,-84
94317,-81
94325,-56
94332,-42
94340,-47
94348,-57
94356,-62
94364,-63
94371,-82
94379,-102
94387,-83
94395,-44
94403,-16
94410,-12
94418,-42
94426,-69
94434,-77
94442,-67
94450,-46
94457,-42
94465,-46
94473,-42
94481,-11
94489,24
94496,32
94504,7
94512,-48
94520,-98
94528,-111
94535,-97
94543,-68
94551,-31
94559,-13
94567,-145
94575,-256
94582,239
94590,1427
94598,2221
94606,1537
94614,-299
94621,-1760
94629,-1864
94637,-1107
94645,-482
94653,-270
94660,-202
94668,-125
94676,-46
94684,13
94692,8
94700,-32
94707,-27
94715,7
94723,26
94731,21
94739,24
94746,50
94754,69
94762,44
94770,14
94778,28
94785,77
94793,105
94801,83
94809,31
94817,-37
94825,-78
94832,-95
94840,-109
94848,-118
94856,-120
94864,-140
94871,-180
94879,-234
94887,-261
94895,-234
94903,-167
94910,-112
94918,-101
94926,-101
94934,-99
94942,-112
94950,-106
94957,-77
94965,-27
94973,10
94981,14
94989,-14
94996,-56
95004,-87
95012,-82
95020,-40
95028,6
95035,1
95043,-49
95051,-99
95059,-115
95067,-98
95075,-76
95082,-73
95090,-82
95098,-88
95106,-82
95114,-70
95121,-68
95129,-66
95137,-58
95145,-29
95153,6
95160,0
95168,-44
95176,-85
95184,-95
95192,-88
95200,-92
95207,-94
95215,-56
95223,-7
95231,-109
95239,-334
95246,-73
95254,1030
95262,2143
95270,1931
95278,250
95285,-1499
95293,-1989
95301,-1362
95309,-635
95317,-316
95325,-207
95332,-115
95340,-51
95348,-7
95356,8
95364,-8
95371,-31
95379,-34
95387,4
95395,52
95403,77
95410,74
95418,52
95426,44
95434,53
95442,64
95450,80
95457,82
95465,74
95473,44
95481,-6
95489,-45
95496,-68
95504,-82
95512,-118
95520,-174
95528,-205
95535,-210
95543,-200
95551,-195
95559,-207
95567,-205
95575,-179
95582,-140
95590,-106
95598,-97
95606,-99
95614,-104
95621,-80
95629,-27
95637,-13
95645,-38
95653,-66
95660,-74
95668,-56
95676,-55
95684,-60
95692,-62
95700,-75
95707,-94
95715,-103
95723,-105
95731,-110
95739,-112
95746,-77
95754,-56
95762,-72
95770,-88
95778,-89
95785,-77
95793,-81
95801,-95
95809,-96
95817,-79
95825,-33
95832,22
95840,46
95848,17
95856,-70
95864,-149
95871,-165
95879,-116
95887,-59
95895,-20
95903,-6
95910,-129
95918,-274
95926,162
95934,1360
95942,2316
95950,1790
95957,-100
95965,-1797
95973,-2083
95981,-1304
95989,-547
95996,-261
96004,-186
96012,-140
96020,-98
96028,-70
96035,-96
96043,-104
96051,-33
96059,67
96067,135
96075,109
96082,25
96090,-19
96098,2
96106,69
96114,114
96121,97
96129,52
96137,30
96145,52
96153,49
96160,7
96168,-39
96176,-87
96184,-130
96192,-187
96200,-236
96207,-220
96215,-200
96223,-203
96231,-227
96239,-246
96246,-209
96254,-160
96262,-151
96270,-179
96278,-177
96285,-108
96293,-45
96301,-16
96309,-6
96317,-8
96325,1
96332,-8
96340,-61
96348,-100
96356,-95
96364,-38
96371,9
96379,3
96387,-48
96395,-106
96403,-138
96410,-126
96418,-85
96426,-40
96434,-48
96442,-81
96450,-97
96457,-98
96465,-105
96473,-97
96481,-24
96489,77
96496,97
96504,36
96512,-20
96520,-47
96528,-75
96535,-137
96543,-143
96551,-33
96559,6
96567,-211
96575,-280
96582,541
96590,1996
96598,2592
96606,1369
96614,-776
96621,-2064
96629,-1831
96637,-969
96645,-444
96653,-305
96660,-233
96668,-128
96676,-63
96684,-60
96692,-87
96700,-84
96707,-15
96715,48
96723,47
96731,26
96739,34
96746,72
96754,85
96762,69
96770,82
96778,113
96785,108
96793,54
96801,11
96809,-4
96817,-44
96825,-101
96832,-121
96840,-114
96848,-135
96856,-192
96864,-236
96871,-247
96879,-256
96887,-249
96895,-203
96903,-154
96910,-132
96918,-122
96926,-85
96934,-62
96942,-77
96950,-90
96957,-71
96965,-37
96973,-24
96981,-22
96989,-10
96996,-20
97004,-52
97012,-77
97020,-73
97028,-69
97035,-78
97043,-73
97051,-55
97059,-36
97067,-43
97075,-84
97082,-108
97090,-86
97098,-51
97106,-39
97114,-39
97121,-11
97129,23
97137,23
97145,-21
97153,-76
97160,-105
97168,-110
97176,-97
97184,-61
97192,-17
97200,1
97207,-96
97215,-233
97223,34
97231,933
97239,1775
97246,1545
97254,185
97262,-1183
97270,-1562
97278,-1090
97285,-552
97293,-317
97301,-228
97309,-170
97317,-148
97325,-130
97332,-92
97340,-55
97348,-37
97356,-32
97364,-30
97371,-26
97379,-21
97387,-22
97395,-20
97403,-5
97410,29
97418,52
97426,60
97434,55
97442,52
97450,51
97457,25
97465,-30
97473,-73
97481,-91
97489,-116
97496,-153
97504,-188
97512,-199
97520,-201
97528,-196
97535,-202
97543,-209
97551,-196
97559,-169
97567,-134
97575,-104
97582,-85
97590,-67
97598,-53
97606,-63
97614,-82
97621,-91
97629,-76
97637,-62
97645,-54
97653,-56
97660,-66
97668,-73
97676,-78
97684,-93
97692,-100
97700,-89
97707,-61
97715,-34
97723,-30
97731,-25
97739,4
97746,22
97754,-13
97762,-84
97770,-129
97778,-121
97785,-101
97793,-98
97801,-85
97809,-20
97817,-31
97825,-203
97832,-141
97840,647
97848,1719
97856,1864
97864,600
97871,-1073
97879,-1818
97887,-1413
97895,-696
97903,-325
97910,-231
97918,-177
97926,-108
97934,-43
97942,-8
97950,-14
97957,-31
97965,-31
97973,-21
97981,4
97989,37
97996,63
98004,69
98012,62
98020,61
98028,75
98035,82
98043,80
98051,72
98059,61
98067,32
98075,-22
98082,-80
98090,-114
98098,-139
98106,-166
98114,-197
98121,-217
98129,-211
98137,-202
98145,-199
98153,-197
98160,-178
98168,-146
98176,-120
98184,-101
98192,-88
98200,-77
98207,-68
98215,-67
98223,-62
98231,-38
98239,-26
98246,-51
98254,-96
98262,-120
98270,-112
98278,-96
98285,-74
98293,-51
98301,-37
98309,-48
98317,-79
98325,-97
98332,-86
98340,-76
98348,-69
98356,-34
98364,11
98371,20
98379,-20
98387,-73
98395,-102
98403,-109
98410,-119
98418,-124
98426,-85
98434,-19
98442,-76
98450,-261
98457,-37
98465,1011
98473,2125
98481,1964
98489,320
98496,-1471
98504,-2031
98512,-1415
98520,-646
98528,-303
98535,-203
98543,-137
98551,-99
98559,-68
98567,-37
98575,-17
98582,5
98590,21
98598,25
98606,27
98614,45
98621,60
98629,77
98637,83
98645,84
98653,97
98660,106
98668,104
98676,83
98684,54
98692,33
98700,-18
98707,-75
98715,-124
98723,-146
98731,-165
98739,-213
98746,-252
98754,-246
98762,-216
98770,-207
98778,-230
98785,-225
98793,-175
98801,-123
98809,-82
98817,-64
98825,-51
98832,-40
98840,-52
98848,-53
98856,-47
98864,-40
98871,-28
98879,-36
98887,-43
98895,-55
98903,-75
98910,-79
98918,-84
98926,-79
98934,-59
98942,-32
98950,20
98957,34
98965,6
98973,-45
98981,-89
98989,-81
98996,-70
99004,-70
99012,-43
99020,-5
99028,-54
99035,-246
99043,-86
99051,929
99059,2115
99067,2114
99075,558
99082,-1304
99090,-1993
99098,-1470
99106,-709
99114,-339
99121,-222
99129,-123
99137,-76
99145,-55
99153,-25
99160,-22
99168,-5
99176,9
99184,18
99192,32
99200,29
99207,46
99215,71
99223,91
99231,116
99239,114
99246,109
99254,94
99262,64
99270,37
99278,-6
99285,-46
99293,-79
99301,-128
99309,-160
99317,-200
99325,-230
99332,-240
99340,-244
99348,-227
99356,-213
99364,-195
99371,-163
99379,-141
99387,-108
99395,-86
99403,-70
99410,-50
99418,-46
99426,-30
99434,-14
99442,-13
99450,-17
99457,-38
99465,-44
99473,-37
99481,-53
99489,-63
99496,-84
99504,-98
99512,-93
99520,-101
99528,-94
99535,-63
99543,-7
99551,38
99559,16
99567,-39
99575,-85
99582,-92
99590,-82
99598,-89
99606,-72
99614,-22
99621,-50
99629,-241
99637,-242
99645,577
99653,1903
99660,2343
99668,1123
99676,-869
99684,-2002
99692,-1732
99700,-922
99707,-429
99715,-282
99723,-194
99731,-121
99739,-92
99746,-62
99754,-42
99762,-28
99770,1
99778,8
99785,8
99793,16
99801,23
99809,49
99817,59
99825,68
99832,83
99840,93
99848,98
99856,75
99864,35
99871,4
99879,-34
99887,-64
99895,-104
99903,-155
99910,-190
99918,-221
99926,-231
99934,-234
99942,-238
99950,-221
99957,-205
99965,-178
99973,-148
99981,-131
99989,-101
99996,-77
100004,-53
100012,-30
100020,-24
100028,-18
100035,-19
100043,-26
100051,-20
100059,-31
100067,-36
100075,-47
100082,-64
100090,-82
100098,-109
100106,-111
100114,-96
100121,-82
100129,-47
100137,-7
100145,24
100153,17
100160,-43
100168,-90
100176,-104
100184,-96
100192,-85
100200,-77
100207,-39
100215,-30
100223,-191
100231,-316
100239,220
100246,1505
100254,2390
100262,1686
100270,-228
100278,-1773
100285,-1913
100293,-1163
100301,-550
100309,-335
100317,-251
100325,-166
100332,-101
100340,-65
100348,-34
100356,-24
100364,-10
100371,4
100379,8
100387,19
100395,29
100403,37
100410,60
100418,75
100426,96
100434,105
100442,90
100450,77
100457,51
100465,20
100473,-13
100481,-55
100489,-93
100496,-140
100504,-187
100512,-219
100520,-243
100528,-241
100535,-229
100543,-218
100551,-197
100559,-185
100567,-159
100575,-124
100582,-99
100590,-79
100598,-71
100606,-56
100614,-44
100621,-48
100629,-46
100637,-48
100645,-44
100653,-39
100660,-49
100668,-56
100676,-61
100684,-62
100692,-52
100700,-54
100707,-62
100715,-78
100723,-92
100731,-88
100739,-83
100746,-79
100754,-74
100762,-59
100770,-1
100778,42
100785,41
100793,-5
100801,-75
100809,-95
100817,-100
100825,-97
100832,-77
100840,-44
100848,-11
100856,-120
100864,-318
100871,-27
100879,1094
100887,2249
100895,2070
100903,381
100910,-1422
100918,-1997
100926,-1412
100934,-689
100942,-390
100950,-293
100957,-209
100965,-138
100973,-82
100981,-53
100989,-36
100996,-31
101004,-22
101012,-5
101020,8
101028,25
101035,38
101043,46
101051,70
101059,81
101067,98
101075,105
101082,91
101090,71
101098,35
101106,-1
101114,-28
101121,-64
101129,-100
101137,-148
101145,-191
101153,-216
101160,-234
101168,-231
101176,-228
101184,-217
101192,-191
101200,-173
101207,-143
101215,-114
101223,-93
101231,-68
101239,-57
101246,-47
101254,-45
101262,-47
101270,-38
101278,-34
101285,-38
101293,-45
101301,-56
101309,-52
101317,-56
101325,-61
101332,-62
101340,-72
101348,-75
101356,-77
101364,-78
101371,-69
101379,-72
101387,-71
101395,-67
101403,-66
101410,-56
101418,-60
101426,-66
101434,-68
101442,-79
101450,-82
101457,-83
101465,-60
101473,-1
101481,48
101489,54
101496,-2
101504,-69
101512,-85
101520,-86
101528,-79
101535,-75
101543,-45
101551,-7
101559,-130
101567,-295
101575,97
101582,1293
101590,2314
101598,1858
101606,26
101614,-1654
101621,-1983
101629,-1268
101637,-577
101645,-320
101653,-232
101660,-157
101668,-95
101676,-55
101684,-41
101692,-35
101700,-29
101707,-1
101715,18
101723,25
101731,37
101739,41
101746,58
101754,71
101762,78
101770,92
101778,87
101785,77
101793,59
101801,29
101809,4
101817,-31
101825,-66
101832,-103
101840,-153
101848,-191
101856,-221
101864,-239
101871,-236
101879,-242
101887,-228
101895,-215
101903,-196
101910,-160
101918,-136
101926,-115
101934,-99
101942,-89
101950,-61
101957,-45
101965,-32
101973,-32
101981,-42
101989,-39
101996,-40
102004,-43
102012,-49
102020,-66
102028,-71
102035,-76
102043,-85
102051,-79
102059,-84
102067,-77
102075,-72
102082,-77
102090,-75
102098,-83
102106,-87
102114,-77
102121,-80
102129,-78
102137,-78
102145,-47
102153,18
102160,52
102168,38
102176,-29
102184,-84
102192,-90
102200,-87
102207,-76
102215,-52
102223,-14
102231,-38
102239,-236
102246,-206
102254,641
102262,1933
102270,2314
102278,1024
102285,-948
102293,-1991
102301,-1667
102309,-839
102317,-362
102325,-218
102332,-119
102340,-63
102348,-25
102356,-2
102364,-4
102371,3
102379,1
102387,10
102395,13
102403,12
102410,28
102418,40
102426,61
102434,84
102442,86
102450,98
102457,90
102465,74
102473,44
102481,-7
102489,-51
102496,-95
102504,-138
102512,-174
102520,-224
102528,-257
102535,-276
102543,-283
102551,-264
102559,-255
102567,-235
102575,-212
102582,-197
102590,-163
102598,-133
102606,-99
102614,-68
102621,-57
102629,-42
102637,-39
102645,-36
102653,-28
102660,-33
102668,-33
102676,-44
102684,-59
102692,-64
102700,-79
102707,-84
102715,-89
102723,-92
102731,-86
102739,-88
102746,-81
102754,-74
102762,-78
102770,-76
102778,-84
102785,-89
102793,-82
102801,-90
102809,-92
102817,-80
102825,-28
102832,49
102840,75
102848,38
102856,-38
102864,-88
102871,-81
102879,-76
102887,-66
102895,-36
102903,-5
102910,-85
102918,-294
102926,-65
102934,1042
102942,2263
102950,2194
102957,515
102965,-1391
102973,-2051
102981,-1477
102989,-696
102996,-352
103004,-254
103012,-161
103020,-104
103028,-65
103035,-41
103043,-31
103051,-10
103059,-9
103067,-5
103075,6
103082,18
103090,44
103098,63
103106,90
103114,111
103121,111
103129,111
103137,89
103145,65
103153,36
103160,2
103168,-25
103176,-57
103184,-108
103192,-157
103200,-214
103207,-245
103215,-260
103223,-262
103231,-250
103239,-240
103246,-221
103254,-196
103262,-180
103270,-152
103278,-129
103285,-100
103293,-69
103301,-62
103309,-49
103317,-41
103325,-33
103332,-25
103340,-37
103348,-43
103356,-48
103364,-55
103371,-60
103379,-76
103387,-82
103395,-86
103403,-96
103410,-93
103418,-93
103426,-85
103434,-76
103442,-83
103450,-83
103457,-92
103465,-96
103473,-100
103481,-106
103489,-65
103496,8
103504,75
103512,79
103520,-1
103528,-65
103535,-81
103543,-77
103551,-68
103559,-56
103567,-11
103575,-28
103582,-237
103590,-282
103598,483
103606,1875
103614,2524
103621,1425
103629,-644
103637,-1984
103645,-1854
103653,-1028
103660,-495
103668,-333
103676,-247
103684,-159
103692,-98
103700,-65
103707,-38
103715,-23
103723,-11
103731,1
103739,3
103746,14
103754,29
103762,38
103770,58
103778,66
103785,81
103793,94
103801,92
103809,83
103817,53
103825,9
103832,-23
103840,-74
103848,-119
103856,-170
103864,-213
103871,-234
103879,-258
103887,-261
103895,-253
103903,-234
103910,-201
103918,-184
103926,-163
103934,-141
103942,-123
103950,-92
103957,-75
103965,-59
103973,-40
103981,-40
103989,-35
103996,-37
104004,-40
104012,-31
104020,-37
104028,-43
104035,-56
104043,-68
104051,-62
104059,-66
104067,-65
104075,-66
104082,-75
104090,-69
104098,-70
104106,-70
104114,-74
104121,-96
104129,-91
104137,-88
104145,-91
104153,-84
104160,-49
104168,34
104176,87
104184,57
104192,-12
104200,-71
104207,-71
104215,-64
104223,-60
104231,-32
104239,-2
104246,-76
104254,-288
104262,-135
104270,922
104278,2231
104285,2338
104293,761
104301,-1244
104309,-2079
104317,-1588
104325,-791
104332,-407
104340,-305
104348,-216
104356,-142
104364,-96
104371,-50
104379,-34
104387,-21
104395,-10
104403,-7
104410,7
104418,18
104426,32
104434,54
104442,74
104450,104
104457,111
104465,105
104473,98
104481,67
104489,44
104496,2
104504,-39
104512,-68
104520,-116
104528,-160
104535,-208
104543,-240
104551,-249
104559,-261
104567,-256
104575,-247
104582,-228
104590,-192
104598,-164
104606,-130
104614,-100
104621,-85
104629,-68
104637,-58
104645,-46
104653,-32
104660,-45
104668,-47
104676,-46
104684,-43
104692,-39
104700,-49
104707,-55
104715,-64
104723,-75
104731,-75
104739,-81
104746,-77
104754,-79
104762,-92
104770,-94
104778,-89
104785,-83
104793,-84
104801,-81
104809,-24
104817,49
104825,78
104832,41
104840,-41
104848,-85
104856,-82
104864,-76
104871,-62
104879,-41
104887,1
104895,-79
104903,-292
104910,-104
104918,965
104926,2224
104934,2228
104942,593
104950,-1347
104957,-2076
104965,-1512
104973,-716
104981,-363
104989,-264
104996,-184
105004,-121
105012,-77
105020,-49
105028,-29
105035,-17
105043,-9
105051,-1
105059,7
105067,22
105075,40
105082,59
105090,78
105098,87
105106,99
105114,106
105121,95
105129,72
105137,37
105145,-4
105153,-39
105160,-82
105168,-115
105176,-155
105184,-194
105192,-220
105200,-234
105207,-237
105215,-232
105223,-220
105231,-195
105239,-172
105246,-147
105254,-121
105262,-96
105270,-69
105278,-53
105285,-44
105293,-40
105301,-47
105309,-46
105317,-46
105325,-43
105332,-43
105340,-51
105348,-56
105356,-60
105364,-65
105371,-68
105379,-76
105387,-75
105395,-77
105403,-80
105410,-72
105418,-68
105426,-59
105434,-60
105442,-71
105450,-69
105457,-66
105465,-65
105473,-72
105481,-80
105489,-78
105496,-81
105504,-84
105512,-70
105520,-19
105528,50
105535,77
105543,32
105551,-38
105559,-84
105567,-81
105575,-73
105582,-68
105590,-37
105598,-9
105606,-97
105614,-289
105621,-49
105629,1043
105637,2210
105645,2092
105653,451
105660,-1389
105668,-1997
105676,-1421
105684,-684
105692,-367
105700,-279
105707,-189
105715,-117
105723,-76
105731,-42
105739,-29
105746,-15
105754,-2
105762,-4
105770,12
105778,26
105785,49
105793,69
105801,72
105809,86
105817,96
105825,100
105832,98
105840,67
105848,36
105856,-1
105864,-36
105871,-65
105879,-106
105887,-137
105895,-170
105903,-195
105910,-199
105918,-207
105926,-208
105934,-205
105942,-197
105950,-165
105957,-136
105965,-110
105973,-84
105981,-69
105989,-53
105996,-48
106004,-45
106012,-36
106020,-37
106028,-34
106035,-41
106043,-48
106051,-48
106059,-55
106067,-58
106075,-62
106082,-71
106090,-71
106098,-75
106106,-68
106114,-61
106121,-67
106129,-66
106137,-71
106145,-69
106153,-61
106160,-63
106168,-54
106176,-49
106184,-50
106192,-57
106200,-71
106207,-68
106215,-66
106223,-77
106231,-71
106239,-38
106246,28
106254,66
106262,30
106270,-39
106278,-92
106285,-94
106293,-75
106301,-76
106309,-54
106317,-22
106325,-75
106332,-259
106340,-163
106348,750
106356,1965
106364,2157
106371,789
106379,-1085
106387,-1948
106395,-1539
106403,-775
106410,-375
106418,-275
106426,-200
106434,-134
106442,-90
106450,-49
106457,-35
106465,-27
106473,-16
106481,-15
106489,2
106496,18
106504,33
106512,50
106520,58
106528,72
106535,82
106543,77
106551,68
106559,40
106567,10
106575,-23
106582,-58
106590,-85
106598,-119
106606,-146
106614,-168
106621,-192
106629,-199
106637,-208
106645,-213
106653,-206
106660,-203
106668,-179
106676,-154
106684,-124
106692,-91
106700,-79
106707,-62
106715,-51
106723,-46
106731,-40
106739,-51
106746,-51
106754,-50
106762,-55
106770,-55
106778,-64
106785,-64
106793,-62
106801,-70
106809,-73
106817,-83
106825,-84
106832,-80
106840,-84
106848,-79
106856,-75
106864,-77
106871,-69
106879,-76
106887,-70
106895,-71
106903,-79
106910,-83
106918,-85
106926,-82
106934,-78
106942,-79
106950,-46
106957,9
106965,49
106973,37
106981,-31
106989,-84
106996,-99
107004,-94
107012,-87
107020,-77
107028,-31
107035,-45
107043,-219
107051,-233
107059,494
107067,1743
107075,2233
107082,1127
107090,-767
107098,-1897
107106,-1679
107114,-896
107121,-416
107129,-279
107137,-204
107145,-137
107153,-89
107160,-57
107168,-29
107176,-22
107184,-16
107192,-6
107200,0
107207,15
107215,31
107223,41
107231,57
107239,67
107246,82
107254,88
107262,74
107270,57
107278,25
107285,-9
107293,-44
107301,-85
107309,-107
107317,-129
107325,-153
107332,-172
107340,-195
107348,-202
107356,-205
107364,-202
107371,-189
107379,-179
107387,-155
107395,-127
107403,-102
107410,-77
107418,-68
107426,-56
107434,-52
107442,-56
107450,-51
107457,-49
107465,-51
107473,-52
107481,-62
107489,-62
107496,-73
107504,-78
107512,-78
107520,-86
107528,-80
107535,-79
107543,-84
107551,-74
107559,-74
107567,-68
107575,-65
107582,-69
107590,-61
107598,-67
107606,-74
107614,-83
107621,-85
107629,-78
107637,-81
107645,-69
107653,-16
107660,36
107668,62
107676,24
107684,-44
107692,-86
107700,-94
107707,-84
107715,-71
107723,-47
107731,-5
107739,-84
107746,-266
107754,-53
107762,959
107770,2081
107778,1991
107785,434
107793,-1317
107801,-1922
107809,-1369
107817,-656
107825,-345
107832,-251
107840,-171
107848,-102
107856,-65
107864,-43
107871,-23
107879,-16
107887,-4
107895,0
107903,6
107910,28
107918,35
107926,43
107934,54
107942,60
107950,81
107957,81
107965,65
107973,41
107981,-3
107989,-29
107996,-61
108004,-90
108012,-111
108020,-147
108028,-169
108035,-185
108043,-196
108051,-190
108059,-202
108067,-199
108075,-192
108082,-173
108090,-137
108098,-114
108106,-89
108114,-72
108121,-66
108129,-53
108137,-48
108145,-42
108153,-39
108160,-51
108168,-53
108176,-57
108184,-62
108192,-66
108200,-73
108207,-67
108215,-67
108223,-71
108231,-66
108239,-75
108246,-75
108254,-72
108262,-72
108270,-60
108278,-63
108285,-71
108293,-80
108301,-89
108309,-80
108317,-79
108325,-63
108332,-14
108340,35
108348,59
108356,16
108364,-52
108371,-88
108379,-93
108387,-77
108395,-61
108403,-39
108410,-3
108418,-80
108426,-265
108434,-83
108442,894
108450,2039
108457,2029
108465,532
108473,-1246
108481,-1930
108489,-1420
108496,-689
108504,-347
108512,-246
108520,-175
108528,-110
108535,-72
108543,-46
108551,-28
108559,-23
108567,-16
108575,-5
108582,0
108590,22
108598,28
108606,48
108614,61
108621,68
108629,87
108637,82
108645,70
108653,50
108660,10
108668,-19
108676,-53
108684,-87
108692,-109
108700,-138
108707,-155
108715,-179
108723,-193
108731,-197
108739,-206
108746,-200
108754,-185
108762,-163
108770,-129
108778,-106
108785,-86
108793,-64
108801,-55
108809,-41
108817,-42
108825,-45
108832,-39
108840,-47
108848,-48
108856,-54
108864,-61
108871,-58
108879,-68
108887,-77
108895,-80
108903,-87
108910,-77
108918,-80
108926,-78
108934,-74
108942,-74
108950,-68
108957,-73
108965,-81
108973,-85
108981,-92
108989,-81
108996,-78
109004,-68
109012,-18
109020,32
109028,63
109035,24
109043,-44
109051,-87
109059,-98
109067,-87
109075,-72
109082,-51
109090,-10
109098,-89
109106,-267
109114,-52
109121,954
109129,2074
109137,1989
109145,437
109153,-1318
109160,-1936
109168,-1384
109176,-656
109184,-333
109192,-237
109200,-171
109207,-109
109215,-69
109223,-44
109231,-23
109239,-14
109246,1
109254,12
109262,17
109270,37
109278,43
109285,53
109293,65
109301,65
109309,80
109317,78
109325,70
109332,53
109340,15
109348,-25
109356,-70
109364,-116
109371,-148
109379,-182
109387,-205
109395,-227
109403,-242
109410,-229
109418,-225
109426,-219
109434,-209
109442,-196
109450,-156
109457,-117
109465,-89
109473,-70
109481,-63
109489,-49
109496,-45
109504,-49
109512,-50
109520,-57
109528,-57
109535,-59
109543,-65
109551,-58
109559,-61
109567,-60
109575,-60
109582,-64
109590,-61
109598,-71
109606,-76
109614,-80
109621,-82
109629,-70
109637,-76
109645,-72
109653,-33
109660,20
109668,66
109676,37
109684,-39
109692,-90
109700,-105
109707,-82
109715,-69
109723,-54
109731,-14
109739,-52
109746,-217
109754,-127
109762,742
109770,1944
109778,2146
109785,790
109793,-1085
109801,-1980
109809,-1565
109817,-769
109825,-343
109832,-220
109840,-152
109848,-93
109856,-54
109864,-26
109871,-9
109879,0
109887,15
109895,19
109903,25
109910,39
109918,48
109926,65
109934,80
109942,91
109950,107
109957,107
109965,94
109973,74
109981,30
109989,-8
109996,-41
110004,-71
110012,-96
110020,-146
110028,-181
110035,-202
110043,-207
110051,-198
110059,-206
110067,-207
110075,-190
110082,-162
110090,-116
110098,-93
110106,-74
110114,-61
110121,-53
110129,-38
110137,-39
110145,-38
110153,-29
110160,-31
110168,-28
110176,-32
110184,-38
110192,-39
110200,-51
110207,-48
110215,-53
110223,-58
110231,-56
110239,-59
110246,-54
110254,-55
110262,-69
110270,-76
110278,-88
110285,-86
110293,-60
110301,-9
110309,49
110317,48
110325,-6
110332,-64
110340,-97
110348,-89
110356,-85
110364,-80
110371,-51
110379,-34
110387,-134
110395,-256
110403,177
110410,1357
110418,2243
110426,1657
110434,-185
110442,-1749
110450,-1947
110457,-1205
110465,-540
110473,-288
110481,-197
110489,-123
110496,-95
110504,-66
110512,-35
110520,-26
110528,-10
110535,1
110543,8
110551,19
110559,19
110567,32
110575,55
110582,67
110590,77
110598,71
110606,73
110614,64
110621,32
110629,-5
110637,-44
110645,-74
110653,-100
110660,-139
110668,-171
110676,-209
110684,-238
110692,-243
110700,-240
110707,-224
110715,-212
110723,-196
110731,-167
110739,-138
110746,-112
110754,-91
110762,-77
110770,-48
110778,-27
110785,-15
110793,-15
110801,-31
110809,-48
110817,-46
110825,-21
110832,-3
110840,-42
110848,-98
110856,-126
110864,-102
110871,-66
110879,-80
110887,-104
110895,-99
110903,-89
110910,-92
110918,-104
110926,-59
110934,38
110942,91
110950,48
110957,-47
110965,-94
110973,-102
110981,-84
110989,-44
110996,11
111004,26
111012,-115
111020,-309
111028,83
111035,1310
111043,2368
111051,1944
111059,114
111067,-1607
111075,-1986
111082,-1326
111090,-666
111098,-413
111106,-295
111114,-168
111121,-93
111129,-48
111137,-21
111145,-14
111153,-18
111160,-38
111168,-51
111176,-30
111184,8
111192,48
111200,78
111207,99
111215,95
111223,67
111231,28
111239,5
111246,-4
111254,0
111262,-29
111270,-82
111278,-127
111285,-148
111293,-171
111301,-224
111309,-273
111317,-274
111325,-239
111332,-205
111340,-191
111348,-189
111356,-175
111364,-142
111371,-102
111379,-72
111387,-63
111395,-69
111403,-65
111410,-29
111418,6
111426,2
111434,-30
111442,-68
111450,-78
111457,-59
111465,-48
111473,-55
111481,-75
111489,-101
111496,-124
111504,-128
111512,-108
111520,-93
111528,-104
111535,-133
111543,-123
111551,-50
111559,32
111567,55
111575,2
111582,-67
111590,-85
111598,-76
111606,-69
111614,-50
111621,-15
111629,-61
111637,-263
111645,-175
111653,782
111660,2094
111668,2327
111676,860
111684,-1163
111692,-2105
111700,-1692
111707,-876
111715,-420
111723,-262
111731,-158
111739,-112
111746,-85
111754,-31
111762,5
111770,-2
111778,-34
111785,-34
111793,-10
111801,14
111809,38
111817,65
111825,89
111832,110
111840,106
111848,89
111856,75
111864,60
111871,28
111879,-13
111887,-48
111895,-76
111903,-113
111910,-158
111918,-203
111926,-220
111934,-205
111942,-195
111950,-199
111957,-207
111965,-195
111973,-163
111981,-129
111989,-106
111996,-87
112004,-50
112012,-8
112020,7
112028,4
112035,-3
112043,-6
112051,-2
112059,-2
112067,-17
112075,-31
112082,-38
112090,-40
112098,-60
112106,-79
112114,-103
112121,-102
112129,-94
112137,-96
112145,-116
112153,-106
112160,-45
112168,33
112176,57
112184,8
112192,-55
112200,-88
112207,-92
112215,-88
112223,-70
112231,-13
112239,2
112246,-174
112254,-311
112262,275
112270,1615
112278,2449
112285,1609
112293,-414
112301,-1926
112309,-1961
112317,-1147
112325,-513
112332,-291
112340,-195
112348,-118
112356,-82
112364,-50
112371,-27
112379,-19
112387,-11
112395,0
112403,11
112410,26
112418,32
112426,40
112434,59
112442,81
112450,98
112457,107
112465,96
112473,73
112481,33
112489,-5
112496,-45
112504,-89
112512,-126
112520,-164
112528,-192
112535,-215
112543,-231
112551,-239
112559,-239
112567,-228
112575,-205
112582,-182
112590,-153
112598,-126
112606,-95
112614,-70
112621,-49
112629,-29
112637,-25
112645,-28
112653,-34
112660,-37
112668,-34
112676,-40
112684,-44
112692,-45
112700,-54
112707,-66
112715,-77
112723,-88
112731,-89
112739,-92
112746,-90
112754,-90
112762,-98
112770,-101
112778,-95
112785,-83
112793,-80
112801,-79
112809,-42
112817,29
112825,74
112832,52
112840,-29
112848,-82
112856,-88
112864,-75
112871,-67
112879,-42
112887,3
112895,-31
112903,-245
112910,-232
112918,658
112926,2084
112934,2565
112942,1226
112950,-938
112957,-2147
112965,-1842
112973,-956
112981,-445
112989,-310
112996,-223
113004,-139
113012,-81
113020,-43
113028,-20
113035,-5
113043,4
113051,11
113059,12
113067,20
113075,41
113082,58
113090,74
113098,88
113106,101
113114,111
113121,108
113129,90
113137,54
113145,6
113153,-38
113160,-85
113168,-120
113176,-154
113184,-190
113192,-220
113200,-243
113207,-250
113215,-246
113223,-239
113231,-216
113239,-191
113246,-165
113254,-143
113262,-118
113270,-94
113278,-74
113285,-63
113293,-57
113301,-49
113309,-31
113317,-31
113325,-39
113332,-55
113340,-66
113348,-68
113356,-71
113364,-81
113371,-88
113379,-87
113387,-84
113395,-74
113403,-69
113410,-67
113418,-75
113426,-73
113434,-67
113442,-61
113450,-56
113457,-57
113465,-65
113473,-73
113481,-71
113489,-67
113496,-74
113504,-73
113512,-37
113520,28
113528,65
113535,38
113543,-34
113551,-79
113559,-87
113567,-76
113575,-70
113582,-52
113590,-11
113598,-48
113606,-257
113614,-233
113621,650
113629,2058
113637,2528
113645,1210
113653,-923
113660,-2121
113668,-1823
113676,-957
113684,-457
113692,-322
113700,-233
113707,-142
113715,-91
113723,-58
113731,-27
113739,-9
113746,-3
113754,-7
113762,-6
113770,9
113778,28
113785,49
113793,66
113801,74
113809,88
113817,100
113825,114
113832,102
113840,48
113848,-5
113856,-27
113864,-50
113871,-100
113879,-176
113887,-226
113895,-236
113903,-236
113910,-253
113918,-262
113926,-251
113934,-225
113942,-196
113950,-160
113957,-128
113965,-100
113973,-75
113981,-54
113989,-42
113996,-35
114004,-36
114012,-30
114020,-36
114028,-46
114035,-48
114043,-42
114051,-39
114059,-52
114067,-73
114075,-78
114082,-79
114090,-80
114098,-84
114106,-85
114114,-78
114121,-76
114129,-73
114137,-73
114145,-70
114153,-56
114160,-52
114168,-47
114176,-52
114184,-59
114192,-67
114200,-76
114207,-71
114215,-66
114223,-74
114231,-63
114239,-10
114246,63
114254,80
114262,21
114270,-59
114278,-90
114285,-79
114293,-69
114301,-71
114309,-45
114317,-15
114325,-119
114332,-302
114340,16
114348,1203
114356,2371
114364,2108
114371,295
114379,-1587
114387,-2114
114395,-1446
114403,-682
114410,-371
114418,-278
114426,-183
114434,-116
114442,-76
114450,-46
114457,-31
114465,-18
114473,-8
114481,-4
114489,6
114496,16
114504,27
114512,46
114520,64
114528,82
114535,94
114543,95
114551,87
114559,64
114567,40
114575,6
114582,-36
114590,-77
114598,-121
114606,-166
114614,-207
114621,-238
114629,-254
114637,-256
114645,-246
114653,-233
114660,-219
114668,-197
114676,-170
114684,-138
114692,-105
114700,-86
114707,-71
114715,-64
114723,-54
114731,-47
114739,-43
114746,-45
114754,-45
114762,-46
114770,-44
114778,-52
114785,-60
114793,-66
114801,-73
114809,-76
114817,-77
114825,-73
114832,-69
114840,-71
114848,-74
114856,-75
114864,-76
114871,-75
114879,-69
114887,-60
114895,-59
114903,-61
114910,-62
114918,-65
114926,-72
114934,-83
114942,-86
114950,-81
114957,-83
114965,-77
114973,-34
114981,28
114989,70
114996,45
115004,-29
115012,-82
115020,-94
115028,-82
115035,-74
115043,-52
115051,-9
115059,-46
115067,-240
115075,-214
115082,649
115090,1993
115098,2404
115106,1095
115114,-959
115121,-2081
115129,-1758
115137,-912
115145,-430
115153,-301
115160,-215
115168,-133
115176,-88
115184,-53
115192,-33
115200,-21
115207,-10
115215,-5
115223,7
115231,23
115239,35
115246,48
115254,66
115262,82
115270,93
115278,102
115285,101
115293,86
115301,53
115309,19
115317,-25
115325,-64
115332,-107
115340,-156
115348,-196
115356,-227
115364,-245
115371,-249
115379,-250
115387,-243
115395,-226
115403,-204
115410,-173
115418,-146
115426,-119
115434,-96
115442,-81
115450,-62
115457,-56
115465,-48
115473,-43
115481,-41
115489,-41
115496,-40
115504,-47
115512,-51
115520,-55
115528,-60
115535,-68
115543,-75
115551,-74
115559,-70
115567,-68
115575,-74
115582,-85
115590,-79
115598,-69
115606,-62
115614,-51
115621,-42
115629,-37
115637,-46
115645,-63
115653,-69
115660,-71
115668,-74
115676,-74
115684,-50
115692,11
115700,55
115707,46
115715,-18
115723,-85
115731,-101
115739,-92
115746,-82
115754,-71
115762,-31
115770,-23
115778,-185
115785,-256
115793,433
115801,1771
115809,2450
115817,1416
115825,-668
115832,-2060
115840,-1948
115848,-1072
115856,-459
115864,-266
115871,-176
115879,-104
115887,-64
115895,-30
115903,-14
115910,-8
115918,1
115926,6
115934,16
115942,30
115950,45
115957,57
115965,73
115973,94
115981,117
115989,124
115996,114
116004,91
116012,68
116020,35
116028,-4
116035,-46
116043,-90
116051,-135
116059,-189
116067,-228
116075,-248
116082,-257
116090,-258
116098,-251
116106,-239
116114,-214
116121,-191
116129,-163
116137,-137
116145,-106
116153,-74
116160,-52
116168,-42
116176,-38
116184,-36
116192,-27
116200,-26
116207,-29
116215,-39
116223,-49
116231,-56
116239,-65
116246,-74
116254,-75
116262,-81
116270,-82
116278,-83
116285,-81
116293,-81
116301,-84
116309,-88
116317,-91
116325,-85
116332,-86
116340,-100
116348,-90
116356,-29
116364,45
116371,76
116379,26
116387,-49
116395,-84
116403,-80
116410,-73
116418,-67
116426,-38
116434,2
116442,-109
116450,-297
116457,54
116465,1275
116473,2404
116481,2032
116489,152
116496,-1676
116504,-2099
116512,-1373
116520,-622
116528,-330
116535,-240
116543,-151
116551,-92
116559,-59
116567,-34
116575,-20
116582,-8
116590,6
116598,11
116606,25
116614,37
116621,50
116629,62
116637,78
116645,101
116653,123
116660,126
116668,118
116676,91
116684,47
116692,7
116700,-40
116707,-85
116715,-138
116723,-194
116731,-229
116739,-255
116746,-261
116754,-261
116762,-253
116770,-232
116778,-211
116785,-190
116793,-164
116801,-142
116809,-112
116817,-84
116825,-61
116832,-42
116840,-39
116848,-37
116856,-37
116864,-42
116871,-41
116879,-45
116887,-49
116895,-55
116903,-62
116910,-67
116918,-71
116926,-75
116934,-73
116942,-78
116950,-77
116957,-76
116965,-68
116973,-60
116981,-60
116989,-65
116996,-63
117004,-58
117012,-53
117020,-66
117028,-81
117035,-85
117043,-78
117051,-73
117059,-71
117067,-37
117075,26
117082,63
117090,40
117098,-27
117106,-76
117114,-84
117121,-78
117129,-77
117137,-60
117145,-19
117153,-41
117160,-233
117168,-241
117176,575
117184,1944
117192,2470
117200,1260
117207,-818
117215,-2060
117223,-1834
117231,-989
117239,-467
117246,-316
117254,-226
117262,-148
117270,-101
117278,-61
117285,-42
117293,-29
117301,-22
117309,-9
117317,9
117325,21
117332,35
117340,46
117348,61
117356,79
117364,91
117371,102
117379,105
117387,97
117395,70
117403,30
117410,-8
117418,-46
117426,-84
117434,-131
117442,-180
117450,-217
117457,-246
117465,-251
117473,-247
117481,-239
117489,-222
117496,-199
117504,-174
117512,-145
117520,-117
117528,-97
117535,-79
117543,-66
117551,-49
117559,-38
117567,-34
117575,-40
117582,-51
117590,-55
117598,-56
117606,-54
117614,-51
117621,-56
117629,-58
117637,-66
117645,-75
117653,-77
117660,-74
117668,-71
117676,-68
117684,-71
117692,-70
117700,-66
117707,-64
117715,-65
117723,-67
117731,-62
117739,-60
117746,-58
117754,-67
117762,-74
117770,-74
117778,-76
117785,-82
117793,-66
117801,-15
117809,49
117817,65
117825,12
117832,-60
117840,-95
117848,-87
117856,-78
117864,-75
117871,-52
117879,-14
117887,-80
117895,-279
117903,-114
117910,928
117918,2191
117926,2248
117934,661
117942,-1308
117950,-2095
117957,-1567
117965,-758
117973,-385
117981,-286
117989,-198
117996,-128
118004,-83
118012,-48
118020,-35
118028,-23
118035,-12
118043,-2
118051,12
118059,21
118067,32
118075,50
118082,64
118090,83
118098,96
118106,103
118114,97
118121,73
118129,48
118137,15
118145,-23
118153,-62
118160,-107
118168,-151
118176,-191
118184,-221
118192,-239
118200,-246
118207,-242
118215,-233
118223,-219
118231,-194
118239,-168
118246,-137
118254,-109
118262,-89
118270,-72
118278,-58
118285,-50
118293,-41
118301,-41
118309,-45
118317,-52
118325,-62
118332,-61
118340,-56
118348,-54
118356,-60
118364,-68
118371,-69
118379,-69
118387,-72
118395,-71
118403,-74
118410,-72
118418,-71
118426,-69
118434,-63
118442,-59
118450,-58
118457,-60
118465,-62
118473,-60
118481,-60
118489,-55
118496,-52
118504,-50
118512,-51
118520,-64
118528,-76
118535,-77
118543,-75
118551,-69
118559,-71
118567,-51
118575,2
118582,47
118590,44
118598,-16
118606,-79
118614,-97
118621,-86
118629,-80
118637,-69
118645,-31
118653,-22
118660,-177
118668,-281
118676,301
118684,1588
118692,2392
118700,1572
118707,-400
118715,-1875
118723,-1922
118731,-1129
118739,-524
118746,-327
118754,-238
118762,-158
118770,-111
118778,-60
118785,-33
118793,-31
118801,-33
118809,2
118817,40
118825,39
118832,7
118840,4
118848,46
118856,80
118864,72
118871,64
118879,79
118887,97
118895,79
118903,37
118910,-6
118918,-40
118926,-78
118934,-116
118942,-157
118950,-188
118957,-207
118965,-224
118973,-226
118981,-223
118989,-218
118996,-211
119004,-191
119012,-156
119020,-122
119028,-101
119035,-84
119043,-74
119051,-55
119059,-48
119067,-52
119075,-57
119082,-62
119090,-59
119098,-55
119106,-55
119114,-54
119121,-55
119129,-54
119137,-60
119145,-73
119153,-80
119160,-85
119168,-81
119176,-76
119184,-73
119192,-67
119200,-63
119207,-62
119215,-68
119223,-69
119231,-65
119239,-60
119246,-56
119254,-56
119262,-57
119270,-51
119278,-49
119285,-54
119293,-66
119301,-80
119309,-83
119317,-75
119325,-73
119332,-58
119340,-18
119348,39
119356,58
119364,13
119371,-54
119379,-93
119387,-95
119395,-82
119403,-71
119410,-34
119418,-6
119426,-107
119434,-284
119442,30
119450,1178
119457,2278
119465,1985
119473,222
119481,-1567
119489,-2042
119496,-1374
119504,-637
119512,-342
119520,-257
119528,-177
119535,-115
119543,-71
119551,-27
119559,-12
119567,-7
119575,-6
119582,-1
119590,14
119598,28
119606,36
119614,52
119621,66
119629,88
119637,100
119645,102
119653,95
119660,74
119668,41
119676,3
119684,-36
119692,-69
119700,-112
119707,-147
119715,-181
119723,-208
119731,-228
119739,-244
119746,-243
119754,-225
119762,-201
119770,-191
119778,-177
119785,-157
119793,-118
119801,-85
119809,-60
119817,-51
119825,-50
119832,-47
119840,-47
119848,-50
119856,-54
119864,-60
119871,-58
119879,-55
119887,-58
119895,-60
119903,-60
119910,-61
119918,-66
119926,-74
119934,-75
119942,-73
119950,-66
119957,-66
119965,-62
119973,-63
119981,-66
119989,-67
119996,-62
120004,-55
120012,-46
120020,-51
120028,-57
120035,-65
120043,-75
120051,-69
120059,-64
120067,-71
120075,-74
120082,-46
120090,20
120098,71
120106,55
120114,-12
120121,-76
120129,-88
120137,-79
120145,-75
120153,-56
120160,-19
120168,-29
120176,-199
120184,-251
120192,460
120200,1762
120207,2371
120215,1317
120223,-688
120231,-1973
120239,-1824
120246,-994
120254,-448
120262,-289
120270,-207
120278,-130
120285,-89
120293,-51
120301,-28
120309,-15
120317,-7
120325,0
120332,15
120340,29
120348,35
120356,47
120364,59
120371,76
120379,91
120387,99
120395,106
120403,96
120410,69
120418,27
120426,-15
120434,-47
120442,-87
120450,-127
120457,-167
120465,-200
120473,-215
120481,-228
120489,-231
120496,-222
120504,-212
120512,-194
120520,-176
120528,-150
120535,-122
120543,-98
120551,-78
120559,-67
120567,-59
120575,-45
120582,-41
120590,-40
120598,-47
120606,-57
120614,-59
120621,-59
120629,-57
120637,-56
120645,-64
120653,-71
120660,-76
120668,-72
120676,-67
120684,-71
120692,-75
120700,-77
120707,-71
120715,-67
120723,-67
120731,-62
120739,-62
120746,-63
120754,-63
120762,-62
120770,-57
120778,-56
120785,-59
120793,-64
120801,-72
120809,-70
120817,-73
120825,-77
120832,-58
120840,-4
120848,53
120856,62
120864,4
120871,-63
120879,-95
120887,-93
120895,-87
120903,-78
120910,-43
120918,-15
120926,-136
120934,-276
120942,176
120950,1406
120957,2349
120965,1757
120973,-138
120981,-1760
120989,-1984
120996,-1228
121004,-551
121012,-311
121020,-230
121028,-153
121035,-102
121043,-70
121051,-42
121059,-25
121067,-7
121075,0
121082,6
121090,18
121098,30
121106,41
121114,56
121121,66
121129,80
121137,93
121145,95
121153,90
121160,66
121168,35
121176,-3
121184,-42
121192,-82
121200,-123
121207,-155
121215,-183
121223,-207
121231,-225
121239,-237
121246,-231
121254,-216
121262,-200
121270,-181
121278,-159
121285,-135
121293,-108
121301,-87
121309,-69
121317,-59
121325,-54
121332,-52
121340,-53
121348,-52
121356,-51
121364,-58
121371,-58
121379,-58
121387,-61
121395,-67
121403,-72
121410,-76
121418,-77
121426,-78
121434,-80
121442,-77
121450,-72
121457,-69
121465,-66
121473,-66
121481,-68
121489,-63
121496,-51
121504,-47
121512,-49
121520,-64
121528,-75
121535,-80
121543,-80
121551,-81
121559,-86
121567,-86
121575,-48
121582,17
121590,66
121598,53
121606,-18
121614,-80
121621,-97
121629,-92
121637,-83
121645,-64
121653,-13
121660,-27
121668,-217
121676,-237
121684,537
121692,1847
121700,2334
121707,1153
121715,-844
121723,-2008
121731,-1754
121739,-926
121746,-422
121754,-277
121762,-199
121770,-132
121778,-91
121785,-58
121793,-36
121801,-20
121809,-7
121817,1
121825,12
121832,27
121840,37
121848,48
121856,63
121864,77
121871,94
121879,101
121887,98
121895,86
121903,60
121910,27
121918,-15
121926,-61
121934,-101
121942,-139
121950,-170
121957,-201
121965,-219
121973,-222
121981,-224
121989,-225
121996,-218
122004,-202
122012,-171
122020,-148
122028,-124
122035,-99
122043,-76
122051,-59
122059,-52
122067,-45
122075,-38
122082,-41
122090,-43
122098,-46
122106,-49
122114,-50
122121,-54
122129,-64
122137,-69
122145,-77
122153,-75
122160,-70
122168,-69
122176,-70
122184,-71
122192,-61
122200,-55
122207,-53
122215,-63
122223,-76
122231,-82
122239,-78
122246,-79
122254,-81
122262,-85
122270,-52
122278,11
122285,62
122293,59
122301,-4
122309,-66
122317,-87
122325,-79
122332,-70
122340,-58
122348,-19
122356,-5
122364,-156
122371,-248
122379,345
122387,1612
122395,2350
122403,1463
122410,-515
122418,-1940
122426,-1913
122434,-1072
122442,-451
122450,-257
122457,-183
122465,-121
122473,-78
122481,-43
122489,-19
122496,-8
122504,-3
122512,3
122520,8
122528,15
122535,34
122543,52
122551,70
122559,75
122567,87
122575,104
122582,110
122590,98
122598,63
122606,21
122614,-11
122621,-51
122629,-95
122637,-141
122645,-182
122653,-212
122660,-241
122668,-259
122676,-265
122684,-262
122692,-247
122700,-227
122707,-201
122715,-162
122723,-127
122731,-99
122739,-84
122746,-72
122754,-53
122762,-40
122770,-35
122778,-37
122785,-45
122793,-44
122801,-48
122809,-50
122817,-54
122825,-64
122832,-70
122840,-75
122848,-76
122856,-79
122864,-84
122871,-82
122879,-76
122887,-71
122895,-73
122903,-86
122910,-87
122918,-84
122926,-90
122934,-94
122942,-78
122950,-14
122957,57
122965,64
122973,5
122981,-70
122989,-95
122996,-79
123004,-66
123012,-53
123020,-21
123028,-15
123035,-159
123043,-224
123051,426
123059,1699
123067,2348
123075,1359
123082,-638
123090,-1994
123098,-1896
123106,-1049
123114,-436
123121,-236
123129,-150
123137,-86
123145,-62
123153,-31
123160,-9
123168,-4
123176,5
123184,5
123192,10
123200,17
123207,33
123215,54
123223,66
123231,82
123239,91
123246,103
123254,109
123262,96
123270,65
123278,24
123285,-21
123293,-59
123301,-101
123309,-142
123317,-191
123325,-229
123332,-250
123340,-252
123348,-248
123356,-240
123364,-227
123371,-206
123379,-179
123387,-148
123395,-121
123403,-95
123410,-73
123418,-54
123426,-45
123434,-38
123442,-40
123450,-36
123457,-32
123465,-40
123473,-47
123481,-53
123489,-57
123496,-63
123504,-71
123512,-74
123520,-75
123528,-78
123535,-79
123543,-78
123551,-70
123559,-72
123567,-81
123575,-92
123582,-92
123590,-88
123598,-96
123606,-105
123614,-68
123621,8
123629,68
123637,55
123645,-23
123653,-80
123660,-86
123668,-77
123676,-73
123684,-56
123692,-11
123700,-36
123707,-236
123715,-223
123723,624
123731,1978
123739,2417
123746,1129
123754,-939
123762,-2085
123770,-1779
123778,-921
123785,-423
123793,-286
123801,-202
123809,-127
123817,-84
123825,-50
123832,-28
123840,-11
123848,-4
123856,1
123864,5
123871,18
123879,35
123887,54
123895,70
123903,81
123910,92
123918,101
123926,102
123934,91
123942,63
123950,26
123957,-16
123965,-62
123973,-104
123981,-147
123989,-193
123996,-228
124004,-248
124012,-248
124020,-241
124028,-230
124035,-209
124043,-190
124051,-163
124059,-134
124067,-107
124075,-90
124082,-76
124090,-54
124098,-40
124106,-41
124114,-51
124121,-56
124129,-58
124137,-65
124145,-70
124153,-70
124160,-71
124168,-77
124176,-86
124184,-89
124192,-79
124200,-76
124207,-77
124215,-78
124223,-79
124231,-71
124239,-64
124246,-62
124254,-61
124262,-74
124270,-84
124278,-84
124285,-83
124293,-83
124301,-75
124309,-27
124317,42
124325,70
124332,32
124340,-42
124348,-80
124356,-80
124364,-80
124371,-77
124379,-49
124387,-2
124395,-51
124403,-259
124410,-146
124418,842
124426,2155
124434,2347
124442,833
124450,-1199
124457,-2118
124465,-1655
124473,-812
124481,-394
124489,-290
124496,-206
124504,-140
124512,-91
124520,-50
124528,-22
124535,-9
124543,-9
124551,-6
124559,2
124567,15
124575,39
124582,56
124590,71
124598,88
124606,99
124614,108
124621,103
124629,81
124637,50
124645,14
124653,-23
124660,-66
124668,-106
124676,-149
124684,-189
124692,-225
124700,-244
124707,-249
124715,-242
124723,-230
124731,-217
124739,-201
124746,-181
124754,-152
124762,-119
124770,-84
124778,-62
124785,-55
124793,-50
124801,-46
124809,-45
124817,-40
124825,-46
124832,-46
124840,-49
124848,-52
124856,-51
124864,-59
124871,-66
124879,-71
124887,-73
124895,-67
124903,-66
124910,-66
124918,-62
124926,-63
124934,-63
124942,-62
124950,-62
124957,-64
124965,-77
124973,-80
124981,-81
124989,-78
124996,-78
125004,-48
125012,17
125020,66
125028,51
125035,-13
125043,-79
125051,-90
125059,-80
125067,-74
125075,-62
125082,-33
125090,-9
125098,-135
125106,-289
125114,164
125121,1409
125129,2396
125137,1845
125145,-65
125153,-1737
125160,-2011
125168,-1268
125176,-584
125184,-344
125192,-253
125200,-163
125207,-105
125215,-65
125223,-46
125231,-32
125239,-17
125246,-4
125254,6
125262,11
125270,20
125278,39
125285,56
125293,76
125301,88
125309,95
125317,102
125325,93
125332,69
125340,38
125348,-2
125356,-37
125364,-80
125371,-119
125379,-162
125387,-200
125395,-223
125403,-234
125410,-236
125418,-228
125426,-221
125434,-202
125442,-180
125450,-151
125457,-124
125465,-104
125473,-85
125481,-67
125489,-51
125496,-38
125504,-44
125512,-44
125520,-45
125528,-51
125535,-57
125543,-62
125551,-56
125559,-51
125567,-55
125575,-61
125582,-68
125590,-72
125598,-73
125606,-78
125614,-76
125621,-73
125629,-65
125637,-60
125645,-65
125653,-65
125660,-61
125668,-59
125676,-61
125684,-76
125692,-78
125700,-73
125707,-71
125715,-70
125723,-55
125731,-1
125739,47
125746,43
125754,-11
125762,-73
125770,-95
125778,-90
125785,-90
125793,-78
125801,-44
125809,-5
125817,-102
125825,-288
125832,7
125840,1134
125848,2260
125856,2032
125864,306
125871,-1503
125879,-2034
125887,-1409
125895,-666
125903,-353
125910,-262
125918,-178
125926,-116
125934,-71
125942,-38
125950,-24
125957,-15
125965,-8
125973,2
125981,12
125989,25
125996,42
126004,56
126012,71
126020,83
126028,87
126035,94
126043,91
126051,76
126059,47
126067,7
126075,-35
126082,-76
126090,-112
126098,-147
126106,-187
126114,-218
126121,-234
126129,-235
126137,-230
126145,-227
126153,-214
126160,-197
126168,-168
126176,-135
126184,-109
126192,-85
126200,-75
126207,-68
126215,-58
126223,-54
126231,-46
126239,-46
126246,-51
126254,-50
126262,-58
126270,-59
126278,-58
126285,-62
126293,-59
126301,-63
126309,-74
126317,-79
126325,-84
126332,-80
126340,-74
126348,-65
126356,-64
126364,-67
126371,-64
126379,-62
126387,-60
126395,-54
126403,-54
126410,-59
126418,-68
126426,-74
126434,-69
126442,-72
126450,-84
126457,-79
126465,-29
126473,38
126481,56
126489,7
126496,-61
126504,-97
126512,-92
126520,-86
126528,-81
126535,-56
126543,-14
126551,-67
126559,-260
126567,-145
126575,824
126582,2099
126590,2275
126598,803
126606,-1176
126614,-2070
126621,-1623
126629,-811
126637,-398
126645,-288
126653,-203
126660,-127
126668,-78
126676,-44
126684,-31
126692,-20
126700,-7
126707,0
126715,7
126723,16
126731,32
126739,53
126746,63
126754,75
126762,85
126770,94
126778,96
126785,79
126793,53
126801,18
126809,-20
126817,-58
126825,-101
126832,-139
126840,-169
126848,-197
126856,-219
126864,-231
126871,-231
126879,-224
126887,-215
126895,-198
126903,-175
126910,-139
126918,-105
126926,-84
126934,-70
126942,-63
126950,-53
126957,-41
126965,-43
126973,-43
126981,-46
126989,-52
126996,-54
127004,-57
127012,-58
127020,-60
127028,-67
127035,-70
127043,-71
127051,-71
127059,-71
127067,-77
127075,-79
127082,-77
127090,-70
127098,-66
127106,-67
127114,-64
127121,-64
127129,-60
127137,-58
127145,-62
127153,-68
127160,-75
127168,-77
127176,-76
127184,-81
127192,-62
127200,-5
127207,55
127215,64
127223,4
127231,-69
127239,-101
127246,-90
127254,-77
127262,-70
127270,-48
127278,-12
127285,-100
127293,-286
127301,-35
127309,1059
127317,2236
127325,2102
127332,423
127340,-1439
127348,-2060
127356,-1461
127364,-693
127371,-359
127379,-269
127387,-190
127395,-125
127403,-85
127410,-52
127418,-32
127426,-22
127434,-9
127442,-1
127450,9
127457,22
127465,34
127473,49
127481,63
127489,81
127496,100
127504,107
127512,99
127520,77
127528,50
127535,18
127543,-22
127551,-65
127559,-108
127567,-148
127575,-183
127582,-212
127590,-233
127598,-240
127606,-239
127614,-224
127621,-205
127629,-185
127637,-164
127645,-145
127653,-117
127660,-94
127668,-74
127676,-66
127684,-58
127692,-52
127700,-44
127707,-44
127715,-45
127723,-52
127731,-52
127739,-51
127746,-54
127754,-55
127762,-62
127770,-72
127778,-73
127785,-76
127793,-73
127801,-75
127809,-77
127817,-75
127825,-67
127832,-61
127840,-61
127848,-65
127856,-65
127864,-65
127871,-69
127879,-69
127887,-65
127895,-53
127903,-54
127910,-66
127918,-76
127926,-78
127934,-77
127942,-84
127950,-72
127957,-19
127965,42
127973,62
127981,14
127989,-61
127996,-97
128004,-95
128012,-79
128020,-63
128028,-37
128035,-11
128043,-119
128051,-293
128059,65
128067,1265
128075,2362
128082,1985
128090,131
128098,-1675
128106,-2107
128114,-1398
128121,-651
128129,-343
128137,-232
128145,-147
128153,-98
128160,-69
128168,-38
128176,-21
128184,-11
128192,0
128200,7
128207,15
128215,31
128223,48
128231,61
128239,70
128246,78
128254,92
128262,102
128270,100
128278,87
128285,58
128293,20
128301,-25
128309,-65
128317,-104
128325,-149
128332,-196
128340,-224
128348,-241
128356,-248
128364,-261
128371,-256
128379,-237
128387,-209
128395,-176
128403,-150
128410,-122
128418,-95
128426,-76
128434,-61
128442,-54
128450,-49
128457,-45
128465,-44
128473,-38
128481,-37
128489,-37
128496,-40
128504,-52
128512,-60
128520,-65
128528,-65
128535,-67
128543,-76
128551,-84
128559,-84
128567,-82
128575,-78
128582,-90
128590,-94
128598,-90
128606,-89
128614,-100
128621,-99
128629,-57
128637,30
128645,78
128653,49
128660,-30
128668,-86
128676,-83
128684,-71
128692,-67
128700,-57
128707,-13
128715,-18
128723,-185
128731,-169
128739,651
128746,1948
128754,2349
128762,1053
128770,-988
128778,-2104
128785,-1783
128793,-917
128801,-406
128809,-249
128817,-154
128825,-86
128832,-48
128840,-19
128848,-9
128856,-1
128864,6
128871,11
128879,23
128887,33
128895,50
128903,65
128910,77
128918,92
128926,109
128934,127
128942,131
128950,117
128957,82
128965,32
128973,-14
128981,-57
128989,-105
128996,-159
129004,-213
129012,-247
129020,-265
129028,-264
129035,-261
129043,-254
129051,-242
129059,-214
129067,-182
129075,-150
129082,-126
129090,-99
129098,-74
129106,-54
129114,-42
129121,-31
129129,-26
129137,-26
129145,-36
129153,-36
129160,-36
129168,-40
129176,-43
129184,-55
129192,-68
129200,-78
129207,-79
129215,-76
129223,-78
129231,-82
129239,-81
129246,-78
129254,-80
129262,-89
129270,-90
129278,-96
129285,-103
129293,-88
129301,-24
129309,45
129317,67
129325,9
129332,-63
129340,-92
129348,-81
129356,-69
129364,-60
129371,-31
129379,0
129387,-112
129395,-289
129403,86
129410,1315
129418,2410
129426,1991
129434,98
129442,-1707
129450,-2102
129457,-1369
129465,-622
129473,-333
129481,-244
129489,-157
129496,-98
129504,-57
129512,-28
129520,-21
129528,-14
129535,-2
129543,11
129551,21
129559,32
129567,38
129575,54
129582,70
129590,89
129598,111
129606,120
129614,112
129621,86
129629,49
129637,14
129645,-32
129653,-74
129660,-120
129668,-172
129676,-215
129684,-248
129692,-256
129700,-250
129707,-240
129715,-227
129723,-212
129731,-188
129739,-164
129746,-134
129754,-101
129762,-79
129770,-65
129778,-58
129785,-46
129793,-36
129801,-35
129809,-37
129817,-40
129825,-49
129832,-56
129840,-63
129848,-65
129856,-66
129864,-71
129871,-78
129879,-77
129887,-81
129895,-81
129903,-81
129910,-75
129918,-72
129926,-76
129934,-82
129942,-90
129950,-88
129957,-91
129965,-100
129973,-84
129981,-22
129989,54
129996,82
130004,27
130012,-52
130020,-88
130028,-82
130035,-71
130043,-66
130051,-40
130059,-1
130067,-83
130075,-290
130082,-89
130090,1022
130098,2318
130106,2311
130114,617
130121,-1399
130129,-2163
130137,-1587
130145,-767
130153,-392
130160,-298
130168,-208
130176,-129
130184,-76
130192,-39
130200,-26
130207,-21
130215,-9
130223,1
130231,14
130239,20
130246,31
130254,48
130262,63
130270,83
130278,99
130285,111
130293,113
130301,95
130309,63
130317,20
130325,-25
130332,-62
130340,-103
130348,-151
130356,-197
130364,-235
130371,-255
130379,-262
130387,-260
130395,-244
130403,-221
130410,-193
130418,-163
130426,-135
130434,-110
130442,-94
130450,-77
130457,-65
130465,-52
130473,-48
130481,-44
130489,-44
130496,-40
130504,-49
130512,-53
130520,-58
130528,-63
130535,-66
130543,-69
130551,-75
130559,-75
130567,-77
130575,-74
130582,-75
130590,-75
130598,-75
130606,-74
130614,-71
130621,-71
130629,-69
130637,-70
130645,-75
130653,-75
130660,-76
130668,-80
130676,-61
130684,-8
130692,55
130700,76
130707,24
130715,-48
130723,-89
130731,-84
130739,-71
130746,-62
130754,-40
130762,-5
130770,-83
130778,-275
130785,-82
130793,1001
130801,2278
130809,2293
130817,636
130825,-1366
130832,-2144
130840,-1585
130848,-763
130856,-383
130864,-289
130871,-199
130879,-129
130887,-82
130895,-46
130903,-27
130910,-12
130918,-2
130926,3
130934,13
130942,21
130950,34
130957,52
130965,69
130973,89
130981,105
130989,112
130996,108
131004,89
131012,61
131020,24
131028,-16
131035,-57
131043,-105
131051,-147
131059,-184
131067,-215
131075,-235
131082,-252
131090,-255
131098,-240
131106,-218
131114,-194
131121,-168
131129,-142
131137,-109
131145,-90
131153,-72
131160,-63
131168,-55
131176,-52
131184,-50
131192,-43
131200,-42
131207,-51
131215,-55
131223,-59
131231,-62
131239,-64
131246,-69
131254,-68
131262,-68
131270,-70
131278,-71
131285,-77
131293,-76
131301,-72
131309,-69
131317,-65
131325,-67
131332,-70
131340,-69
131348,-62
131356,-53
131364,-58
131371,-73
131379,-85
131387,-83
131395,-71
131403,-77
131410,-75
131418,-32
131426,31
131434,60
131442,24
131450,-49
131457,-91
131465,-96
131473,-86
131481,-79
131489,-59
131496,-14
131504,-49
131512,-237
131520,-192
131528,676
131535,1997
131543,2365
131551,1045
131559,-975
131567,-2058
131575,-1728
131582,-901
131590,-432
131598,-301
131606,-219
131614,-140
131621,-90
131629,-54
131637,-33
131645,-20
131653,-9
131660,-3
131668,7
131676,20
131684,32
131692,46
131700,62
131707,76
131715,93
131723,99
131731,102
131739,91
131746,60
131754,25
131762,-16
131770,-58
131778,-93
131785,-127
131793,-164
131801,-197
131809,-223
131817,-231
131825,-231
131832,-222
131840,-211
131848,-194
131856,-168
131864,-146
131871,-120
131879,-96
131887,-77
131895,-64
131903,-55
131910,-52
131918,-46
131926,-47
131934,-47
131942,-48
131950,-52
131957,-53
131965,-63
131973,-66
131981,-65
131989,-64
131996,-65
132004,-70
132012,-74
132020,-73
132028,-72
132035,-70
132043,-74
132051,-67
132059,-62
132067,-60
132075,-60
132082,-61
132090,-59
132098,-58
132106,-60
132114,-63
132121,-69
132129,-76
132137,-72
132145,-68
132153,-73
132160,-74
132168,-41
132176,23
132184,61
132192,35
132200,-33
132207,-86
132215,-90
132223,-83
132231,-77
132239,-59
132246,-16
132254,-27
132262,-197
132270,-233
132278,488
132285,1788
132293,2379
132301,1312
132309,-688
132317,-1965
132325,-1818
132332,-1002
132340,-466
132348,-311
132356,-231
132364,-150
132371,-101
132379,-63
132387,-41
132395,-27
132403,-13
132410,-2
132418,4
132426,14
132434,29
132442,45
132450,60
132457,71
132465,83
132473,87
132481,92
132489,82
132496,61
132504,29
132512,-12
132520,-51
132528,-92
132535,-126
132543,-160
132551,-191
132559,-209
132567,-226
132575,-232
132582,-227
132590,-219
132598,-201
132606,-182
132614,-153
132621,-123
132629,-99
132637,-80
132645,-70
132653,-62
132660,-51
132668,-48
132676,-43
132684,-50
132692,-58
132700,-63
132707,-62
132715,-58
132723,-56
132731,-67
132739,-72
132746,-80
132754,-79
132762,-77
132770,-75
132778,-77
132785,-80
132793,-75
132801,-67
132809,-64
132817,-60
132825,-60
132832,-58
132840,-55
132848,-60
132856,-68
132864,-79
132871,-79
132879,-75
132887,-83
132895,-74
132903,-32
132910,35
132918,71
132926,31
132934,-47
132942,-94
132950,-95
132957,-79
132965,-75
132973,-56
132981,-21
132989,-57
132996,-242
133004,-179
133012,706
133020,1991
133028,2298
133035,951
133043,-1033
133051,-2042
133059,-1674
133067,-857
133075,-405
133082,-286
133090,-207
133098,-133
133106,-90
133114,-53
133121,-33
133129,-20
133137,-6
133145,0
133153,11
133160,25
133168,37
133176,54
133184,59
133192,69
133200,84
133207,92
133215,93
133223,77
133231,52
133239,23
133246,-13
133254,-50
133262,-89
133270,-133
133278,-171
133285,-203
133293,-218
133301,-222
133309,-221
133317,-214
133325,-207
133332,-195
133340,-170
133348,-144
133356,-113
133364,-96
133371,-77
133379,-61
133387,-53
133395,-47
133403,-47
133410,-51
133418,-52
133426,-59
133434,-62
133442,-63
133450,-66
133457,-62
133465,-63
133473,-70
133481,-77
133489,-79
133496,-75
133504,-72
133512,-66
133520,-64
133528,-69
133535,-71
133543,-68
133551,-61
133559,-57
133567,-71
133575,-82
133582,-86
133590,-78
133598,-75
133606,-76
133614,-55
133621,3
133629,56
133637,59
133645,-6
133653,-74
133660,-95
133668,-87
133676,-79
133684,-71
133692,-35
133700,-12
133707,-139
133715,-276
133723,196
133731,1433
133739,2354
133746,1731
133754,-171
133762,-1776
133770,-1974
133778,-1214
133785,-550
133793,-318
133801,-239
133809,-161
133817,-111
133825,-71
133832,-38
133840,-20
133848,-10
133856,-2
133864,0
133871,12
133879,28
133887,47
133895,60
133903,74
133910,82
133918,90
133926,92
133934,86
133942,64
133950,30
133957,-8
133965,-48
133973,-83
133981,-118
133989,-158
133996,-195
134004,-222
134012,-235
134020,-233
134028,-228
134035,-217
134043,-204
134051,-184
134059,-162
134067,-136
134075,-107
134082,-84
134090,-69
134098,-57
134106,-55
134114,-52
134121,-51
134129,-53
134137,-56
134145,-64
134153,-70
134160,-68
134168,-68
134176,-67
134184,-70
134192,-73
134200,-74
134207,-76
134215,-81
134223,-84
134231,-79
134239,-75
134246,-77
134254,-88
134262,-93
134270,-90
134278,-86
134285,-87
134293,-60
134301,2
134309,60
134317,64
134325,3
134332,-68
134340,-91
134348,-82
134356,-76
134364,-76
134371,-39
134379,-6
134387,-120
134395,-276
134403,130
134410,1343
134418,2346
134426,1843
134434,-31
134442,-1722
134450,-2021
134457,-1272
134465,-570
134473,-310
134481,-225
134489,-143
134496,-90
134504,-58
134512,-31
134520,-17
134528,-4
134535,4
134543,11
134551,17
134559,32
134567,45
134575,65
134582,76
134590,82
134598,91
134606,94
134614,93
134621,71
134629,38
134637,-1
134645,-43
134653,-82
134660,-122
134668,-159
134676,-193
134684,-219
134692,-231
134700,-232
134707,-232
134715,-220
134723,-205
134731,-181
134739,-157
134746,-130
134754,-99
134762,-77
134770,-66
134778,-58
134785,-57
134793,-55
134801,-52
134809,-54
134817,-54
134825,-57
134832,-60
134840,-59
134848,-63
134856,-66
134864,-73
134871,-74
134879,-69
134887,-66
134895,-73
134903,-76
134910,-76
134918,-71
134926,-77
134934,-86
134942,-89
134950,-83
134957,-79
134965,-81
134973,-55
134981,8
134989,58
134996,59
135004,-6
135012,-74
135020,-95
135028,-87
135035,-77
135043,-65
135051,-25
135059,-6
135067,-148
135075,-264
135082,269
135090,1534
135098,2386
135106,1649
135114,-299
135121,-1836
135129,-1950
135137,-1165
135145,-526
135153,-313
135160,-230
135168,-148
135176,-93
135184,-58
135192,-33
135200,-21
135207,-9
135215,2
135223,9
135231,16
135239,30
135246,47
135254,61
135262,71
135270,77
135278,87
135285,92
135293,84
135301,64
135309,30
135317,-4
135325,-39
135332,-81
135340,-118
135348,-158
135356,-186
135364,-207
135371,-218
135379,-224
135387,-223
135395,-215
135403,-197
135410,-177
135418,-149
135426,-126
135434,-100
135442,-82
135450,-70
135457,-52
135465,-39
135473,-40
135481,-45
135489,-56
135496,-63
135504,-66
135512,-65
135520,-62
135528,-66
135535,-69
135543,-70
135551,-73
135559,-74
135567,-83
135575,-84
135582,-77
135590,-69
135598,-67
135606,-81
135614,-91
135621,-94
135629,-89
135637,-89
135645,-76
135653,-29
135660,41
135668,66
135676,28
135684,-46
135692,-92
135700,-90
135707,-79
135715,-74
135723,-60
135731,-21
135739,-51
135746,-242
135754,-168
135762,747
135770,2044
135778,2318
135785,904
135793,-1109
135801,-2094
135809,-1690
135817,-851
135825,-402
135832,-270
135840,-186
135848,-125
135856,-83
135864,-41
135871,-20
135879,-4
135887,-1
135895,3
135903,7
135910,17
135918,35
135926,53
135934,73
135942,87
135950,94
135957,96
135965,91
135973,77
135981,52
135989,13
135996,-27
136004,-68
136012,-107
136020,-142
136028,-179
136035,-205
136043,-221
136051,-231
136059,-238
136067,-237
136075,-218
136082,-194
136090,-164
136098,-142
136106,-121
136114,-97
136121,-69
136129,-55
136137,-42
136145,-39
136153,-42
136160,-46
136168,-52
136176,-51
136184,-54
136192,-62
136200,-71
136207,-75
136215,-69
136223,-66
136231,-74
136239,-79
136246,-87
136254,-83
136262,-86
136270,-86
136278,-87
136285,-88
136293,-94
136301,-75
136309,-23
136317,52
136325,74
136332,23
136340,-49
136348,-84
136356,-81
136364,-74
136371,-70
136379,-39
136387,-3
136395,-107
136403,-253
136410,175
136418,1412
136426,2395
136434,1823
136442,-139
136450,-1863
136457,-2123
136465,-1316
136473,-562
136481,-272
136489,-177
136496,-96
136504,-60
136512,-27
136520,-3
136528,2
136535,0
136543,1
136551,9
136559,33
136567,50
136575,61
136582,70
136590,80
136598,98
136606,115
136614,124
136621,113
136629,77
136637,25
136645,-16
136653,-41
136660,-73
136668,-122
136676,-174
136684,-219
136692,-246
136700,-259
136707,-263
136715,-261
136723,-249
136731,-233
136739,-205
136746,-173
136754,-136
136762,-105
136770,-84
136778,-71
136785,-63
136793,-48
136801,-31
136809,-28
136817,-30
136825,-40
136832,-48
136840,-52
136848,-55
136856,-56
136864,-62
136871,-70
136879,-77
136887,-85
136895,-93
136903,-98
136910,-94
136918,-89
136926,-99
136934,-91
136942,-44
136950,29
136957,70
136965,36
136973,-40
136981,-85
136989,-90
136996,-74
137004,-65
137012,-37
137020,-2
137028,-84
137035,-253
137043,62
137051,1226
137059,2346
137067,2029
137075,193
137082,-1664
137090,-2153
137098,-1448
137106,-651
137114,-305
137121,-187
137129,-108
137137,-74
137145,-52
137153,-24
137160,-5
137168,7
137176,15
137184,17
137192,22
137200,37
137207,52
137215,69
137223,80
137231,91
137239,103
137246,107
137254,100
137262,74
137270,38
137278,-1
137285,-42
137293,-84
137301,-128
137309,-174
137317,-208
137325,-234
137332,-247
137340,-250
137348,-246
137356,-231
137364,-210
137371,-184
137379,-149
137387,-117
137395,-94
137403,-78
137410,-63
137418,-43
137426,-35
137434,-32
137442,-38
137450,-44
137457,-37
137465,-34
137473,-38
137481,-51
137489,-63
137496,-71
137504,-74
137512,-81
137520,-99
137528,-109
137535,-102
137543,-108
137551,-123
137559,-109
137567,-42
137575,46
137582,74
137590,15
137598,-60
137606,-86
137614,-74
137621,-64
137629,-47
137637,-4
137645,-3
137653,-168
137660,-271
137668,361
137676,1729
137684,2545
137692,1634
137700,-468
137707,-2002
137715,-2003
137723,-1136
137731,-493
137739,-299
137746,-227
137754,-141
137762,-90
137770,-51
137778,-25
137785,-12
137793,5
137801,12
137809,10
137817,16
137825,26
137832,48
137840,69
137848,82
137856,90
137864,100
137871,100
137879,94
137887,64
137895,24
137903,-21
137910,-65
137918,-104
137926,-147
137934,-189
137942,-217
137950,-234
137957,-239
137965,-245
137973,-237
137981,-215
137989,-191
137996,-166
138004,-137
138012,-107
138020,-81
138028,-69
138035,-57
138043,-48
138051,-43
138059,-40
138067,-46
138075,-48
138082,-51
138090,-56
138098,-57
138106,-63
138114,-67
138121,-73
138129,-88
138137,-98
138145,-101
138153,-102
138160,-116
138168,-115
138176,-64
138184,23
138192,70
138200,39
138207,-39
138215,-83
138223,-83
138231,-75
138239,-66
138246,-33
138254,4
138262,-86
138270,-315
138278,-87
138285,1096
138293,2436
138301,2377
138309,572
138317,-1504
138325,-2237
138332,-1601
138340,-748
138348,-381
138356,-285
138364,-197
138371,-130
138379,-76
138387,-41
138395,-23
138403,-9
138410,-3
138418,4
138426,14
138434,27
138442,44
138450,56
138457,73
138465,89
138473,99
138481,108
138489,98
138496,78
138504,41
138512,-5
138520,-48
138528,-94
138535,-133
138543,-173
138551,-208
138559,-229
138567,-244
138575,-244
138582,-236
138590,-222
138598,-201
138606,-176
138614,-150
138621,-122
138629,-100
138637,-76
138645,-61
138653,-52
138660,-39
138668,-38
138676,-38
138684,-44
138692,-53
138700,-56
138707,-58
138715,-52
138723,-50
138731,-59
138739,-75
138746,-101
138754,-108
138762,-108
138770,-111
138778,-102
138785,-58
138793,23
138801,76
138809,48
138817,-29
138825,-85
138832,-92
138840,-83
138848,-75
138856,-42
138864,7
138871,-51
138879,-282
138887,-198
138895,824
138903,2243
138910,2509
138918,955
138926,-1205
138934,-2221
138942,-1754
138950,-867
138957,-407
138965,-287
138973,-197
138981,-125
138989,-82
138996,-42
139004,-23
139012,-13
139020,-2
139028,1
139035,10
139043,25
139051,43
139059,64
139067,75
139075,92
139082,104
139090,110
139098,107
139106,79
139114,43
139121,-2
139129,-46
139137,-79
139145,-113
139153,-152
139160,-190
139168,-221
139176,-229
139184,-232
139192,-229
139200,-218
139207,-206
139215,-181
139223,-153
139231,-126
139239,-94
139246,-71
139254,-56
139262,-45
139270,-45
139278,-38
139285,-40
139293,-41
139301,-44
139309,-51
139317,-55
139325,-61
139332,-70
139340,-70
139348,-79
139356,-84
139364,-84
139371,-76
139379,-76
139387,-88
139395,-96
139403,-96
139410,-100
139418,-99
139426,-65
139434,14
139442,79
139450,68
139457,-5
139465,-79
139473,-104
139481,-87
139489,-78
139496,-57
139504,-13
139512,-9
139520,-175
139528,-277
139535,361
139543,1728
139551,2518
139559,1596
139567,-495
139575,-2000
139582,-1986
139590,-1131
139598,-503
139606,-313
139614,-231
139621,-142
139629,-94
139637,-52
139645,-29
139653,-17
139660,-6
139668,-2
139676,10
139684,23
139692,37
139700,53
139707,61
139715,74
139723,90
139731,96
139739,91
139746,73
139754,51
139762,18
139770,-23
139778,-61
139785,-95
139793,-128
139801,-157
139809,-188
139817,-207
139825,-217
139832,-222
139840,-215
139848,-210
139856,-190
139864,-168
139871,-143
139879,-114
139887,-94
139895,-68
139903,-51
139910,-50
139918,-51
139926,-59
139934,-60
139942,-57
139950,-62
139957,-63
139965,-62
139973,-67
139981,-73
139989,-78
139996,-78
140004,-74
140012,-76
140020,-80
140028,-81
140035,-68
140043,-60
140051,-70
140059,-84
140067,-87
140075,-75
140082,-73
140090,-88
140098,-75
140106,-16
140114,54
140121,70
140129,11
140137,-61
140145,-91
140153,-84
140160,-76
140168,-71
140176,-42
140184,-1
140192,-87
140200,-279
140207,-16
140215,1119
140223,2297
140231,2107
140239,355
140246,-1522
140254,-2093
140262,-1449
140270,-682
140278,-359
140285,-260
140293,-170
140301,-105
140309,-70
140317,-40
140325,-28
140332,-16
140340,1
140348,11
140356,21
140364,24
140371,30
140379,45
140387,61
140395,72
140403,79
140410,84
140418,77
140426,56
140434,22
140442,-12
140450,-45
140457,-70
140465,-101
140473,-138
140481,-166
140489,-189
140496,-195
140504,-204
140512,-211
140520,-208
140528,-198
140535,-177
140543,-150
140551,-126
140559,-100
140567,-82
140575,-67
140582,-57
140590,-56
140598,-52
140606,-55
140614,-58
140621,-58
140629,-59
140637,-59
140645,-66
140653,-73
140660,-71
140668,-71
140676,-76
140684,-78
140692,-79
140700,-72
140707,-71
140715,-66
140723,-64
140731,-63
140739,-68
140746,-73
140754,-80
140762,-82
140770,-81
140778,-75
140785,-78
140793,-53
140801,8
140809,62
140817,57
140825,-6
140832,-75
140840,-96
140848,-92
140856,-82
140864,-69
140871,-27
140879,-5
140887,-146
140895,-284
140903,221
140910,1488
140918,2402
140926,1724
140934,-226
140942,-1821
140950,-1981
140957,-1197
140965,-538
140973,-315
140981,-229
140989,-146
140996,-93
141004,-57
141012,-33
141020,-19
141028,-7
141035,2
141043,10
141051,22
141059,39
141067,50
141075,61
141082,68
141090,71
141098,87
141106,95
141114,86
141121,60
141129,18
141137,-23
141145,-52
141153,-84
141160,-114
141168,-152
141176,-181
141184,-199
141192,-206
141200,-209
141207,-209
141215,-204
141223,-188
141231,-172
141239,-147
141246,-123
141254,-101
141262,-78
141270,-68
141278,-55
141285,-49
141293,-55
141301,-58
141309,-62
141317,-60
141325,-63
141332,-69
141340,-73
141348,-71
141356,-69
141364,-73
141371,-86
141379,-90
141387,-87
141395,-80
141403,-75
141410,-73
141418,-68
141426,-75
141434,-88
141442,-91
141450,-80
141457,-75
141465,-83
141473,-72
141481,-10
141489,60
141496,73
141504,9
141512,-72
141520,-104
141528,-94
141535,-75
141543,-54
141551,-24
141559,0
141567,-134
141575,-269
141582,257
141590,1559
141598,2465
141606,1710
141614,-341
141621,-1968
141629,-2072
141637,-1212
141645,-514
141653,-277
141660,-185
141668,-105
141676,-65
141684,-32
141692,-11
141700,2
141707,5
141715,6
141723,7
141731,21
141739,42
141746,57
141754,67
141762,83
141770,97
141778,110
141785,111
141793,95
141801,69
141809,26
141817,-17
141825,-51
141832,-89
141840,-127
141848,-170
141856,-207
141864,-237
141871,-252
141879,-256
141887,-255
141895,-242
141903,-221
141910,-201
141918,-174
141926,-143
141934,-107
141942,-78
141950,-66
141957,-57
141965,-50
141973,-46
141981,-39
141989,-31
141996,-31
142004,-49
142012,-68
142020,-76
142028,-69
142035,-65
142043,-74
142051,-90
142059,-98
142067,-105
142075,-100
142082,-91
142090,-105
142098,-116
142106,-85
142114,-10
142121,53
142129,37
142137,-30
142145,-81
142153,-93
142160,-84
142168,-81
142176,-54
142184,-2
142192,-47
142200,-232
142207,-71
142215,951
142223,2195
142231,2207
142239,566
142246,-1440
142254,-2216
142262,-1633
142270,-754
142278,-307
142285,-164
142293,-83
142301,-51
142309,-39
142317,-3
142325,17
142332,20
142340,15
142348,15
142356,25
142364,40
142371,50
142379,71
142387,89
142395,104
142403,108
142410,111
142418,99
142426,79
142434,45
142442,6
142450,-33
142457,-71
142465,-121
142473,-175
142481,-223
142489,-252
142496,-259
142504,-256
142512,-260
142520,-261
142528,-246
142535,-212
142543,-175
142551,-146
142559,-118
142567,-96
142575,-74
142582,-57
142590,-40
142598,-28
142606,-26
142614,-28
142621,-36
142629,-43
142637,-52
142645,-62
142653,-70
142660,-75
142668,-82
142676,-89
142684,-96
142692,-101
142700,-90
142707,-95
142715,-111
142723,-103
142731,-40
142739,42
142746,71
142754,18
142762,-55
142770,-91
142778,-83
142785,-76
142793,-65
142801,-28
142809,-7
142817,-129
142825,-258
142832,241
142840,1523
142848,2441
142856,1741
142864,-280
142871,-1937
142879,-2084
142887,-1233
142895,-506
142903,-254
142910,-176
142918,-98
142926,-56
142934,-26
142942,-8
142950,-2
142957,7
142965,15
142973,25
142981,32
142989,38
142996,52
143004,72
143012,89
143020,103
143028,109
143035,112
143043,103
143051,74
143059,38
143067,-3
143075,-48
143082,-90
143090,-133
143098,-174
143106,-209
143114,-228
143121,-232
143129,-237
143137,-234
143145,-220
143153,-196
143160,-164
143168,-138
143176,-115
143184,-89
143192,-69
143200,-52
143207,-42
143215,-39
143223,-41
143231,-45
143239,-45
143246,-46
143254,-50
143262,-55
143270,-66
143278,-73
143285,-73
143293,-76
143301,-84
143309,-96
143317,-96
143325,-95
143332,-105
143340,-108
143348,-67
143356,12
143364,72
143371,52
143379,-25
143387,-82
143395,-86
143403,-72
143410,-64
143418,-40
143426,2
143434,-51
143442,-256
143450,-145
143457,875
143465,2252
143473,2464
143481,887
143489,-1256
143496,-2226
143504,-1725
143512,-830
143520,-382
143528,-278
143535,-192
143543,-112
143551,-64
143559,-28
143567,-14
143575,-1
143582,11
143590,19
143598,23
143606,32
143614,46
143621,63
143629,81
143637,98
143645,113
143653,122
143660,119
143668,98
143676,65
143684,23
143692,-16
143700,-52
143707,-95
143715,-139
143723,-186
143731,-223
143739,-235
143746,-240
143754,-237
143762,-230
143770,-215
143778,-184
143785,-151
143793,-122
143801,-103
143809,-91
143817,-79
143825,-65
143832,-56
143840,-52
143848,-54
143856,-53
143864,-55
143871,-60
143879,-65
143887,-70
143895,-69
143903,-74
143910,-84
143918,-86
143926,-85
143934,-85
143942,-94
143950,-103
143957,-98
143965,-98
143973,-105
143981,-77
143989,-7
143996,63
144004,72
144012,0
144020,-72
144028,-97
144035,-85
144043,-81
144051,-70
144059,-23
144067,-11
144075,-171
144082,-293
144090,309
144098,1698
144106,2595
144114,1753
144121,-370
144129,-1997
144137,-2069
144145,-1206
144153,-539
144160,-333
144168,-247
144176,-153
144184,-93
144192,-57
144200,-31
144207,-21
144215,-10
144223,2
144231,8
144239,20
144246,32
144254,48
144262,67
144270,81
144278,100
144285,115
144293,118
144301,103
144309,73
144317,40
144325,5
144332,-38
144340,-88
144348,-136
144356,-177
144364,-207
144371,-228
144379,-242
144387,-253
144395,-246
144403,-222
144410,-199
144418,-170
144426,-145
144434,-118
144442,-87
144450,-63
144457,-55
144465,-50
144473,-40
144481,-31
144489,-35
144496,-48
144504,-59
144512,-54
144520,-39
144528,-37
144535,-61
144543,-85
144551,-85
144559,-64
144567,-50
144575,-61
144582,-71
144590,-68
