4083
4059
4055
4058
4065
4072
4078
4083
4086
4089
4090
4092
4093
4094
4094
4095
4095
4095
4095
4096
4096
4096
4096
4096
4096
4096
4096
4096
4096
4096
4096
4096
4096
4096
4096
4096
4096
4096
4096
4096
4096
4096
4096
4096
4096
4096
4096
4096
4096
4096
4096
4096
4096
4096
4096
4096
4096
4096
4096
4096
4096
4096
4096
4096
4096
4096
4096
4096
4096
4096
4096
4096
4096
4096
4096
4096
4096
4096
4096
4096
4096
4096
4096
4096
4094
4090
4084
4076
4065
4053
4040
4024
4009
3992
3975
3957
3939
3921
3903
3884
3865
3847
3828
3810
3793
3776
3758
3742
3725
3708
3691
3675
3658
3642
3625
3609
3593
3577
3561
3545
3529
3513
3497
3482
3467
3453
3438
3425
3411
3398
3384
3370
3357
3343
3329
3316
3302
3289
3275
3262
3249
3237
3225
3213
3201
3189
3178
3167
3156
3145
3135
3124
3114
3104
3093
3083
3073
3063
3053
3043
3033
3024
3015
3006
2997
2989
2981
2973
2966
2958
2949
2941
2933
2925
2916
2907
2898
2890
2881
2873
2864
2856
2847
2839
2830
2821
2813
2805
2798
2791
2783
2776
2770
2763
2756
2750
2743
2736
2729
2721
2714
2707
2699
2692
2684
2677
2670
2664
2657
2651
2645
2639
2633
2628
2622
2617
2611
2606
2601
2596
2591
2586
2581
2576
2571
2565
2560
2555
2551
2546
2541
2537
2533
2528
2524
2520
2516
2511
2507
2502
2498
2494
2489
2484
2479
2475
2471
2467
2463
2459
2456
2453
2449
2446
2442
2438
2434
2430
2426
2422
2418
2414
2409
2405
2399
2394
2389
2384
2379
2373
2367
2361
2354
2349
2343
2340
2337
2335
2335
2338
2343
2351
2362
2377
2395
2416
2439
2465
2493
2523
2555
2587
2620
2655
2691
2727
2762
2797
2830
2862
2892
2918
2938
2954
2963
2965
2958
2943
2918
2884
2839
2784
2721
2652
2579
2507
2438
2374
2318
2269
2229
2195
2168
2147
2130
2116
2106
2099
2094
2090
2088
2087
2088
2089
2091
2094
2096
2098
2100
2103
2106
2108
2111
2112
2113
2114
2114
2114
2114
2114
2114
2114
2114
2114
2114
2114
2114
2114
2114
2114
2114
2113
2113
2113
2112
2112
2112
2112
2113
2113
2113
2114
2114
2115
2115
2116
2116
2116
2116
2117
2117
2116
2116
2117
2116
2116
2116
2116
2117
2117
2117
2118
2118
2119
2119
2119
2119
2120
2119
2119
2119
2119
2119
2119
2119
2118
2118
2118
2118
2119
2119
2119
2119
2120
2120
2121
2121
2120
2121
2121
2121
2121
2121
2120
2119
2119
2118
2118
2117
2117
2117
2117
2117
2118
2118
2119
2120
2120
2121
2122
2122
2123
2123
2123
2123
2124
2124
2124
2124
2124
2125
2125
2126
2127
2128
2129
2130
2130
2131
2131
2132
2132
2132
2132
2133
2133
2134
2134
2134
2134
2135
2136
2136
2137
2138
2139
2141
2141
2142
2143
2143
2144
2144
2144
2145
2145
2145
2146
2147
2147
2148
2149
2150
2151
2151
2152
2153
2154
2155
2155
2155
2156
2156
2156
2156
2156
2156
2156
2156
2156
2156
2156
2156
2157
2156
2157
2157
2157
2156
2156
2156
2155
2155
2154
2153
2152
2151
2150
2149
2147
2146
2145
2144
2143
2141
2141
2139
2138
2137
2135
2133
2131
2129
2127
2125
2123
2120
2118
2115
2113
2110
2108
2105
2102
2100
2098
2097
2095
2094
2092
2090
2088
2087
2085
2083
2081
2078
2076
2074
2072
2070
2068
2066
2064
2063
2062
2061
2060
2059
2058
2057
2055
2054
2053
2053
2051
2050
2049
2047
2046
2046
2045
2045
2045
2044
2044
2043
2043
2043
2042
2043
2042
2042
2042
2043
2042
2042
2041
2041
2040
2040
2040
2039
2039
2039
2039
2039
2039
2040
2041
2042
2043
2043
2043
2044
2044
2043
2043
2043
2043
2043
2043
2044
2044
2044
2045
2046
2046
2047
2048
2048
2049
2049
2050
2050
2050
2051
2051
2050
2050
2050
2050
2049
2050
2050
2050
2051
2051
2052
2053
2054
2054
2054
2055
2055
2055
2056
2056
2056
2057
2057
2057
2057
2057
2057
2057
2058
2058
2060
2060
2061
2061
2062
2062
2062
2062
2062
2062
2061
2060
2060
2059
2059
2058
2058
2058
2058
2058
2058
2058
2059
2060
2061
2061
2062
2062
2062
2063
2063
2063
2063
2062
2062
2062
2062
2062
2062
2062
2062
2063
2063
2063
2064
2064
2065
2065
2065
2065
2065
2064
2064
2064
2063
2063
2063
2062
2062
2061
2062
2061
2061
2062
2061
2062
2061
2061
2061
2061
2060
2060
2060
2059
2058
2058
2057
2057
2057
2057
2058
2058
2058
2058
2059
2059
2060
2060
2060
2060
2059
2059
2058
2057
2057
2056
2055
2055
2054
2054
2053
2053
2054
2053
2053
2053
2053
2053
2053
2053
2052
2052
2052
2052
2051
2051
2050
2050
2050
2050
2050
2050
2051
2051
2051
2051
2052
2052
2052
2053
2053
2053
2054
2054
2054
2055
2055
2055
2056
2057
2057
2058
2060
2061
2063
2065
2067
2068
2069
2070
2070
2071
2071
2071
2071
2070
2070
2070
2070
2070
2070
2069
2068
2068
2067
2066
2066
2065
2064
2064
2063
2063
2062
2062
2061
2061
2061
2060
2060
2060
2061
2061
2061
2062
2062
2062
2063
2064
2064
2064
2064
2063
2062
2062
2061
2060
2058
2058
2057
2056
2056
2055
2055
2056
2056
2056
2057
2057
2058
2058
2058
2058
2059
2059
2059
2059
2058
2058
2058
2057
2057
2057
2058
2058
2059
2059
2060
2060
2061
2061
2061
2061
2062
2061
2061
2061
2060
2060
2059
2058
2057
2056
2055
2053
2052
2050
2048
2046
2043
2040
2036
2033
2031
2028
2026
2026
2027
2028
2032
2038
2048
2061
2077
2097
2119
2143
2170
2199
2230
2263
2297
2333
2369
2406
2444
2483
2521
2557
2593
2627
2658
2686
2708
2724
2733
2735
2728
2712
2686
2650
2604
2548
2484
2415
2344
2273
2206
2145
2093
2047
2010
1980
1957
1939
1925
1915
1908
1904
1902
1901
1901
1903
1906
1909
1912
1915
1919
1923
1928
1932
1935
1939
1942
1945
1948
1950
1953
1954
1955
1957
1959
1960
1961
1962
1963
1964
1965
1966
1967
1968
1968
1969
1970
1972
1973
1974
1975
1977
1979
1980
1982
1984
1986
1988
1989
1990
1991
1992
1993
1993
1994
1995
1996
1997
1998
1999
2000
2002
2003
2004
2006
2007
2008
2010
2011
2012
2013
2013
2014
2014
2015
2015
2015
2016
2016
2016
2017
2017
2019
2020
2022
2023
2024
2025
2026
2027
2028
2029
2030
2030
2030
2030
2030
2030
2030
2031
2031
2032
2032
2033
2033
2034
2036
2037
2038
2039
2040
2041
2042
2042
2043
2044
2044
2045
2046
2048
2049
2050
2051
2052
2053
2054
2056
2057
2058
2060
2061
2061
2063
2063
2064
2065
2066
2066
2067
2068
2068
2069
2069
2071
2072
2073
2074
2076
2077
2078
2079
2080
2082
2083
2084
2085
2086
2086
2087
2088
2089
2091
2092
2093
2094
2096
2097
2098
2099
2101
2102
2102
2102
2103
2103
2103
2103
2103
2103
2103
2102
2102
2103
2103
2103
2104
2104
2105
2106
2107
2107
2107
2107
2108
2107
2107
2107
2106
2105
2104
2104
2103
2103
2103
2102
2102
2101
2100
2100
2099
2098
2097
2096
2095
2093
2092
2090
2089
2087
2084
2082
2080
2078
2075
2073
2071
2069
2067
2065
2064
2062
2060
2057
2056
2053
2052
2050
2048
2045
2044
2042
2040
2039
2037
2036
2034
2033
2032
2032
2030
2030
2029
2028
2027
2026
2026
2024
2023
2022
2021
2021
2020
2019
2018
2017
2017
2017
2017
2016
2016
2016
2016
2015
2015
2015
2015
2014
2014
2014
2013
2013
2012
2012
2011
2011
2012
2012
2012
2013
2014
2015
2016
2016
2016
2017
2017
2017
2018
2018
2018
2018
2018
2018
2018
2019
2020
2020
2020
2021
2023
2023
2024
2024
2025
2026
2027
2027
2028
2028
2028
2028
2028
2028
2028
2028
2028
2028
2028
2029
2029
2029
2030
2030
2031
2031
2032
2032
2033
2033
2032
2033
2033
2033
2034
2034
2034
2035
2036
2036
2037
2038
2038
2039
2040
2040
2041
2041
2042
2042
2042
2042
2043
2042
2042
2042
2042
2042
2042
2042
2043
2044
2044
2044
2044
2045
2044
2044
2044
2044
2043
2043
2043
2043
2043
2043
2043
2043
2043
2043
2043
2043
2044
2045
2045
2046
2047
2048
2048
2049
2049
2048
2048
2048
2047
2047
2046
2046
2045
2045
2044
2044
2044
2044
2044
2044
2044
2044
2044
2044
2044
2043
2043
2043
2043
2042
2042
2042
2041
2041
2041
2041
2041
2041
2041
2041
2042
2042
2042
2042
2042
2042
2042
2042
2041
2041
2041
2040
2040
2040
2039
2039
2039
2039
2040
2040
2040
2040
2041
2040
2041
2040
2040
2040
2040
2040
2039
2038
2038
2038
2039
2038
2039
2039
2039
2040
2041
2042
2043
2044
2044
2044
2044
2045
2045
2045
2045
2044
2044
2044
2043
2043
2043
2042
2042
2042
2041
2041
2041
2041
2041
2040
2039
2039
2038
2038
2038
2037
2037
2037
2037
2037
2039
2040
2041
2043
2045
2046
2048
2050
2051
2053
2054
2055
2056
2057
2057
2058
2059
2059
2059
2059
2059
2059
2060
2060
2060
2060
2060
2060
2061
2061
2060
2060
2060
2059
2058
2057
2056
2056
2055
2054
2054
2054
2053
2053
2053
2052
2052
2052
2052
2052
2052
2052
2052
2052
2051
2051
2050
2049
2048
2046
2046
2046
2045
2045
2045
2046
2046
2046
2046
2047
2047
2047
2047
2047
2046
2046
2046
2046
2046
2046
2046
2046
2047
2047
2047
2048
2048
2049
2050
2050
2051
2051
2051
2051
2051
2051
2051
2051
2050
2050
2050
2050
2049
2050
2050
2050
2050
2050
2050
2050
2050
2050
2049
2048
2047
2045
2044
2042
2040
2037
2034
2030
2026
2023
2020
2017
2016
2015
2015
2018
2021
2026
2034
2046
2060
2078
2097
2120
2144
2172
2202
2234
2267
2302
2338
2376
2414
2454
2493
2530
2567
2601
2634
2662
2686
2705
2716
2720
2717
2704
2683
2651
2609
2558
2497
2429
2359
2288
2220
2158
2103
2056
2016
1984
1959
1939
1924
1913
1904
1897
1893
1892
1891
1892
1894
1896
1899
1903
1907
1911
1915
1920
1924
1928
1932
1935
1938
1941
1943
1944
1945
1947
1948
1949
1950
1951
1953
1954
1955
1957
1958
1960
1961
1962
1964
1965
1966
1967
1968
1969
1970
1971
1972
1973
1975
1977
1979
1981
1983
1985
1986
1988
1990
1991
1993
1994
1995
1995
1996
1996
1997
1998
1998
1998
1999
2000
2001
2002
2003
2004
2005
2007
2008
2008
2009
2010
2011
2011
2012
2012
2012
2013
2013
2013
2014
2015
2016
2017
2018
2019
2021
2022
2022
2024
2025
2026
2027
2027
2028
2028
2029
2029
2030
2030
2031
2032
2033
2033
2034
2035
2036
2037
2038
2039
2040
2041
2042
2043
2044
2044
2045
2046
2046
2047
2047
2048
2049
2050
2052
2053
2055
2056
2057
2059
2060
2061
2062
2063
2064
2065
2066
2067
2068
2069
2070
2071
2072
2073
2075
2076
2078
2079
2080
2082
2083
2084
2085
2086
2086
2086
2087
2087
2088
2088
2088
2089
2090
2091
2092
2093
2095
2096
2097
2098
2099
2100
2101
2101
2101
2101
2101
2100
2100
2099
2098
2098
2098
2098
2098
2098
2099
2099
2098
2099
2099
2100
2100
2100
2100
2100
2100
2099
2099
2098
2097
2097
2096
2095
2094
2093
2092
2090
2089
2088
2087
2086
2084
2083
2081
2079
2078
2076
2075
2074
2072
2070
2068
2066
2065
2062
2060
2059
2057
2055
2053
2051
2049
2047
2045
2042
2040
2038
2035
2034
2032
2031
2029
2027
2026
2025
2024
2023
2022
2021
2020
2020
2020
2020
2019
2019
2018
2018
2017
2017
2016
2015
2015
2014
2014
2014
2013
2013
2013
2013
2013
2012
2012
2013
2012
2012
2012
2012
2011
2011
2011
2010
2010
2010
2010
2010
2011
2012
2012
2013
2013
2014
2015
2016
2017
2018
2019
2020
2020
2020
2020
2020
2020
2020
2020
2021
2021
2022
2022
2023
2024
2026
2027
2028
2029
2030
2030
2031
2032
2032
2032
2031
2031
2030
2030
2029
2030
2030
2030
2030
2031
2031
2032
2033
2034
2035
2035
2036
2037
2037
2037
2037
2037
2037
2037
2037
2038
2038
2039
2040
2041
2042
2043
2044
2045
2045
2046
2045
2045
2045
2045
2044
2043
2043
2042
2042
2042
2042
2042
2042
2042
2043
2043
2044
2044
2044
2044
2044
2044
2043
2044
2043
2043
2042
2042
2042
2042
2042
2043
2043
2043
2044
2045
2046
2046
2046
2046
2046
2046
2046
2045
2044
2044
2043
2042
2042
2042
2042
2042
2043
2043
2043
2043
2044
2044
2045
2045
2045
2046
2045
2045
2044
2044
2043
2043
2043
2043
2042
2043
2042
2042
2043
2043
2043
2043
2044
2044
2044
2043
2044
2043
2043
2043
2042
2042
2042
2042
2041
2041
2042
2042
2042
2042
2042
2042
2042
2043
2044
2044
2044
2045
2045
2045
2045
2046
2045
2045
2044
2044
2043
2043
2043
2042
2042
2042
2043
2043
2043
2043
2044
2044
2043
2043
2043
2043
2042
2042
2042
2042
2042
2042
2041
2042
2042
2043
2044
2044
2045
2047
2047
2049
2049
2050
2051
2052
2052
2053
2053
2054
2055
2056
2057
2058
2059
2060
2061
2062
2063
2063
2063
2064
2064
2064
2064
2063
2063
2062
2061
2060
2059
2059
2057
2057
2056
2055
2055
2055
2055
2055
2055
2055
2055
2054
2054
2054
2054
2053
2053
2052
2052
2051
2051
2051
2051
2051
2050
2050
2051
2050
2051
2051
2050
2050
2050
2050
2049
2049
2049
2049
2049
2049
2049
2050
2050
2051
2052
2052
2053
2053
2054
2054
2055
2056
2056
2056
2056
2056
2055
2055
2054
2053
2052
2051
2051
2051
2052
2052
2052
2053
2053
2053
2054
2054
2054
2053
2054
2054
2053
2052
2051
2050
2049
2047
2046
2044
2041
2038
2035
2032
2030
2028
2026
2024
2025
2026
2029
2034
2041
2052
2067
2085
2106
2130
2156
2184
2216
2248
2283
2319
2356
2394
2434
2474
2512
2549
2584
2616
2644
2666
2683
2694
2699
2698
2688
2670
2644
2608
2562
2507
2445
2378
2310
2244
2182
2126
2077
2035
2000
1972
1950
1933
1920
1910
1903
1897
1895
1894
1894
1896
1899
1902
1906
1910
1914
1919
1923
1927
1931
1935
1939
1942
1946
1949
1951
1954
1956
1958
1960
1961
1962
1963
1964
1965
1966
1967
1967
1969
1969
1970
1971
1972
1973
1974
1975
1976
1978
1979
1980
1982
1983
1985
1987
1988
1990
1992
1993
1994
1996
1997
1997
1998
1999
2000
2001
2001
2002
2002
2003
2004
2006
2007
2009
2010
2011
2012
2013
2014
2015
2016
2017
2017
2018
2018
2019
2020
2020
2021
2022
2023
2024
2025
2026
2027
2028
2029
2030
2032
2032
2033
2033
2034
2034
2034
2035
2035
2035
2036
2036
2037
2039
2040
2041
2043
2044
2046
2047
2048
2050
2050
2051
2052
2053
2054
2054
2054
2055
2056
2056
2056
2056
2057
2058
2058
2060
2061
2061
2062
2063
2064
2064
2065
2066
2067
2068
2069
2070
2071
2072
2074
2076
2078
2080
2082
2083
2085
2086
2088
2088
2089
2090
2090
2090
2091
2091
2092
2092
2092
2092
2093
2094
2095
2095
2097
2097
2099
2099
2100
2102
2102
2103
2104
2104
2105
2104
2104
2104
2104
2103
2103
2103
2103
2104
2104
2104
2104
2104
2104
2104
2104
2103
2103
2102
2101
2101
2100
2099
2098
2097
2096
2096
2095
2094
2094
2093
2092
2092
2090
2089
2087
2086
2084
2083
2081
2078
2075
2073
2070
2067
2064
2062
2060
2058
2056
2055
2053
2052
2051
2050
2048
2047
2045
2043
2042
2040
2039
2036
2035
2033
2031
2030
2028
2026
2025
2023
2023
2022
2021
2020
2020
2019
2018
2018
2017
2015
2014
2014
2013
2012
2012
2011
2011
2011
2011
2012
2011
2012
2012
2012
2012
2012
2012
2012
2012
2011
2011
2011
2010
2010
2009
2009
2009
2009
2009
2009
2009
2010
2011
2012
2013
2014
2015
2016
2016
2017
2017
2018
2018
2018
2018
2018
2019
2019
2020
2021
2022
2023
2023
2024
2025
2025
2026
2027
2027
2027
2027
2027
2027
2027
2027
2028
2028
2028
2029
2030
2031
2032
2033
2033
2034
2035
2035
2036
2036
2037
2037
2037
2037
2037
2036
2037
2037
2038
2038
2039
2039
2040
2041
2041
2042
2042
2043
2043
2043
2043
2043
2042
2042
2041
2041
2041
2041
2041
2041
2041
2042
2042
2043
2043
2044
2045
2046
2046
2046
2047
2046
2046
2046
2046
2046
2045
2045
2045
2045
2045
2045
2045
2045
2045
2046
2046
2046
2047
2047
2047
2047
2047
2047
2046
2046
2045
2045
2045
2044
2043
2043
2042
2043
2042
2043
2042
2043
2043
2042
2042
2042
2042
2042
2043
2043
2042
2042
2042
2042
2042
2042
2042
2042
2042
2043
2043
2043
2044
2044
2043
2043
2043
2043
2042
2042
2042
2042
2042
2042
2041
2042
2041
2041
2042
2042
2042
2042
2042
2042
2042
2042
2042
2041
2041
2040
2040
2039
2038
2038
2038
2038
2038
2039
2039
2039
2039
2040
2040
2040
2041
2041
2041
2041
2041
2041
2041
2041
2042
2042
2043
2043
2044
2046
2047
2048
2050
2052
2053
2055
2056
2058
2059
2059
2059
2059
2059
2059
2058
2057
2057
2056
2056
2055
2054
2054
2054
2053
2053
2052
2051
2051
2051
2050
2050
2050
2049
2049
2049
2048
2048
2048
2048
2048
2048
2049
2049
2048
2048
2048
2048
2049
2048
2048
2048
2048
2047
2047
2046
2046
2046
2045
2045
2045
2046
2046
2047
2048
2049
2049
2050
2051
2051
2052
2051
2051
2051
2051
2050
2049
2049
2048
2048
2047
2047
2048
2047
2048
2048
2048
2048
2049
2049
2049
2050
2049
2049
2049
2049
2048
2048
2047
2046
2046
2045
2044
2043
2042
2042
2041
2040
2038
2037
2034
2032
2029
2026
2023
2021
2020
2019
2020
2021
2025
2032
2041
2054
2070
2090
2112
2137
2164
2194
2226
2260
2294
2329
2366
2403
2441
2479
2516
2552
2585
2616
2643
2666
2682
2694
2698
2695
2684
2664
2635
2595
2546
2488
2422
2354
2285
2219
2158
2104
2056
2016
1984
1958
1938
1922
1911
1903
1897
1893
1892
1891
1892
1894
1896
1898
1902
1905
1909
1913
1916
1920
1924
1928
1932
1936
1939
1942
1945
1948
1950
1952
1953
1955
1957
1958
1959
1960
1960
1961
1962
1962
1963
1964
1964
1965
1966
1968
1969
1971
1973
1975
1976
1979
1980
1982
1984
1985
1987
1988
1989
1990
1991
1992
1993
1994
1995
1997
1997
1999
1999
2000
2001
2002
2003
2004
2004
2005
2005
2005
2006
2006
2006
2007
2008
2009
2010
2011
2012
2013
2014
2015
2016
2017
2018
2019
2020
2020
2021
2022
2022
2022
2023
2023
2024
2025
2025
2026
2028
2029
2030
2031
2032
2033
2034
2034
2036
2037
2037
2039
2039
2039
2040
2040
2041
2041
2042
2043
2044
2045
2046
2047
2048
2049
2050
2051
2052
2053
2054
2054
2055
2055
2056
2058
2059
2060
2060
2061
2062
2063
2065
2066
2067
2069
2070
2072
2073
2075
2076
2076
2077
2078
2079
2080
2080
2081
2082
2084
2085
2086
2087
2089
2090
2091
2093
2094
2095
2096
2097
2098
2098
2098
2097
2098
2097
2097
2097
2097
2098
2098
2098
2099
2099
2100
2101
2101
2102
2102
2102
2102
2101
2101
2101
2100
2099
2099
2098
2097
2096
2095
2094
2094
2093
2092
2092
2091
2090
2088
2087
2085
2084
2082
2081
2079
2077
2075
2073
2072
2070
2068
2066
2065
2063
2062
2061
2060
2058
2057
2055
2053
2051
2049
2047
2045
2042
2040
2038
2035
2033
2031
2030
2028
2027
2025
2024
2024
2023
2022
2022
2021
2019
2019
2017
2016
2014
2013
2012
2011
2011
2010
2009
2009
2008
2008
2008
2008
2008
2008
2008
2008
2008
2008
2008
2007
2007
2007
2007
2006
2006
2006
2006
2006
2006
2006
2007
2007
2008
2008
2009
2009
2010
2009
2009
2009
2010
2010
2010
2010
2009
2010
2010
2011
2011
2012
2013
2014
2015
2015
2016
2017
2017
2018
2019
2019
2020
2020
2021
2021
2021
2022
2023
2023
2023
2024
2025
2026
2027
2027
2028
2029
2030
2030
2031
2031
2031
2031
2031
2031
2031
2031
2031
2031
2032
2032
2033
2034
2035
2035
2036
2037
2038
2039
2039
2039
2039
2039
2039
2039
2038
2038
2039
2038
2038
2038
2039
2039
2039
2040
2041
2042
2042
2042
2042
2042
2041
2041
2041
2040
2040
2039
2039
2039
2040
2040
2040
2040
2041
2041
2041
2042
2042
2043
2043
2044
2043
2043
2042
2042
2041
2040
2040
2039
2039
2038
2038
2037
2037
2038
2038
2037
2038
2038
2038
2039
2039
2039
2039
2039
2039
2038
2038
2038
2038
2038
2038
2038
2038
2038
2038
2039
2039
2039
2040
2040
2039
2040
2039
2039
2039
2039
2038
2037
2037
2037
2037
2037
2037
2037
2037
2038
2038
2039
2039
2040
2040
2039
2039
2039
2038
2037
2037
2036
2036
2035
2036
2036
2036
2037
2037
2037
2037
2038
2038
2038
2038
2037
2037
2036
2036
2035
2035
2035
2035
2036
2036
2036
2037
2038
2039
2040
2042
2043
2044
2046
2046
2047
2048
2048
2048
2049
2049
2050
2050
2051
2051
2052
2054
2054
2055
2055
2056
2056
2057
2057
2058
2058
2057
2057
2056
2055
2053
2051
2050
2049
2048
2047
2047
2046
2046
2046
2046
2046
2046
2046
2046
2047
2047
2047
2046
2046
2046
2045
2045
2044
2044
2044
2043
2043
2044
2044
2043
2044
2044
2045
2045
2045
2045
2046
2046
2046
2045
2045
2045
2044
2045
2045
2045
2045
2046
2046
2047
2048
2049
2049
2049
2050
2050
2050
2050
2050
2050
2050
2050
2049
2049
2048
2048
2048
2048
2048
2048
2048
2048
2048
2048
2047
2047
2046
2045
2045
2043
2041
2039
2036
2032
2029
2025
2022
2019
2016
2014
2013
2012
2014
2016
2022
2029
2040
2053
2070
2090
2113
2138
2164
2194
2225
2258
2292
2327
2363
2401
2439
2477
2515
2551
2587
2620
2649
2674
2693
2706
2712
2710
2699
2679
2649
2610
2560
2501
2435
2365
2295
2227
2164
2109
2060
2020
1987
1961
1941
1926
1914
1905
1898
1894
1891
1890
1890
1892
1895
1898
1902
1905
1910
1914
1918
1922
1926
1930
1934
1937
1939
1941
1943
1945
1946
1947
1948
1948
1950
1951
1952
1954
1955
1957
1959
1960
1962
1964
1965
1966
1968
1968
1969
1970
1971
1972
1973
1974
1976
1977
1978
1980
1981
1983
1985
1987
1988
1990
1991
1992
1993
1994
1995
1995
1996
1997
1997
1998
1999
2000
2000
2001
2002
2003
2004
2006
2007
2008
2009
2010
2011
2011
2012
2012
2012
2013
2013
2014
2014
2015
2016
2017
2017
2018
2019
2020
2021
2023
2024
2024
2025
2026
2027
2028
2029
2029
2030
2030
2031
2031
2032
2033
2034
2034
2035
2036
2037
2038
2039
2040
2041
2041
2042
2042
2043
2043
2044
2044
2045
2045
2046
2047
2048
2050
2051
2052
2053
2055
2057
2058
2060
2062
2063
2064
2065
2065
2066
2067
2067
2068
2069
2070
2070
2071
2073
2074
2076
2077
2079
2081
2082
2083
2084
2085
2086
2087
2088
2088
2088
2089
2090
2090
2090
2091
2092
2092
2093
2094
2095
2096
2096
2097
2098
2098
2098
2099
2098
2098
2099
2099
2098
2099
2098
2099
2099
2099
2099
2099
2099
2099
2099
2099
2098
2097
2097
2096
2095
2093
2092
2090
2089
2087
2086
2084
2082
2082
2080
2078
2077
2076
2075
2073
2072
2070
2068
2067
2065
2063
2061
2059
2056
2055
2052
2050
2048
2047
2046
2044
2042
2041
2039
2038
2037
2035
2033
2032
2030
2028
2027
2025
2024
2022
2021
2020
2019
2018
2017
2017
2017
2016
2016
2016
2015
2015
2014
2013
2013
2012
2011
2010
2009
2008
2007
2006
2006
2005
2005
2005
2005
2005
2006
2006
2006
2007
2008
2008
2009
2009
2009
2009
2009
2008
2008
2008
2008
2008
2008
2008
2009
2010
2011
2012
2013
2013
2014
2015
2015
2015
2016
2016
2016
2016
2017
2017
2017
2017
2017
2018
2018
2019
2020
2021
2022
2023
2023
2024
2024
2025
2025
2025
2025
2025
2025
2025
2025
2025
2025
2026
2026
2027
2027
2028
2029
2030
2030
2031
2032
2033
2033
2033
2033
2033
2033
2033
2034
2034
2034
2034
2034
2035
2035
2036
2036
2036
2037
2038
2038
2038
2038
2038
2038
2038
2038
2038
2038
2037
2037
2038
2038
2039
2039
2040
2041
2042
2042
2042
2042
2043
2043
2043
2043
2042
2042
2041
2041
2041
2041
2040
2040
2041
2041
2042
2043
2043
2044
2044
2045
2045
2045
2045
2044
2044
2044
2043
2043
2042
2042
2041
2040
2040
2040
2040
2040
2040
2040
2041
2040
2040
2040
2040
2039
2039
2039
2038
2038
2037
2038
2037
2038
2038
2038
2039
2039
2039
2040
2040
2040
2040
2040
2039
2039
2040
2039
2039
2039
2039
2039
2038
2039
2039
2039
2039
2039
2039
2040
2040
2040
2040
2040
2040
2040
2040
2039
2039
2039
2039
2039
2038
2039
2039
2038
2039
2039
2040
2040
2040
2040
2041
2041
2041
2041
2041
2041
2040
2040
2039
2038
2037
2036
2036
2035
2035
2035
2035
2035
2036
2036
2036
2037
2037
2038
2038
2039
2040
2040
2040
2041
2042
2043
2044
2045
2046
2047
2049
2050
2052
2053
2055
2056
2057
2057
2058
2058
2058
2058
2058
2058
2058
2058
2058
2058
2058
2057
2057
2057
2056
2055
2055
2055
2054
2055
2054
2053
2052
2052
2051
2051
2050
2049
2049
2049
2049
2049
2049
2049
2049
2049
2048
2048
2048
2048
2047
2047
2047
2046
2046
2046
2046
2045
2046
2046
2046
2046
2047
2047
2048
2048
2048
2049
2050
2050
2050
2050
2049
2049
2049
2048
2048
2047
2047
2047
2046
2047
2046
2047
2047
2047
2048
2048
2048
2048
2049
2049
2049
2048
2048
2048
2047
2047
2046
2045
2044
2044
2043
2043
2042
2040
2039
2037
2035
2032
2028
2025
2023
2019
2017
2014
2014
2015
2017
2021
2029
2039
2053
2070
2090
2112
2137
2164
2194
2226
2259
2293
2329
2364
2401
2439
2476
2513
2549
2584
2617
2647
2672
2692
2707
2714
2713
2705
2686
2658
2620
2572
2514
2449
2379
2309
2239
2175
2117
2067
2025
1991
1964
1942
1925
1913
1904
1898
1895
1893
1892
1893
1895
1897
1900
1902
1906
1909
1913
1917
1921
1925
1928
1931
1934
1937
1940
1942
1944
1946
1947
1948
1950
1951
1952
1953
1954
1955
1955
1956
1957
1959
1960
1960
1962
1963
1965
1966
1968
1969
1971
1972
1973
1975
1976
1977
1978
1979
1980
1981
1982
1983
1984
1985
1986
1987
1989
1990
1992
1993
1995
1997
1998
1999
2000
2001
2002
2003
2003
2004
2005
2005
2006
2007
2007
2008
2009
2010
2010
2012
2013
2014
2015
2016
2017
2018
2018
2019
2019
2020
2020
2020
2021
2021
2022
2023
2023
2024
2026
2027
2028
2029
2030
2031
2032
2032
2033
2034
2035
2035
2036
2036
2036
2037
2037
2038
2039
2041
2042
2043
2044
2046
2047
2048
2049
2050
2051
2052
2052
2053
2054
2055
2055
2056
2057
2057
2058
2059
2060
2060
2061
2063
2064
2065
2067
2067
2069
2070
2070
2071
2072
2073
2074
2075
2076
2077
2078
2079
2080
2082
2083
2084
2085
2087
2088
2089
2090
2091
2091
2091
2092
2091
2092
2092
2093
2093
2093
2094
2094
2095
2096
2097
2097
2098
2098
2099
2099
2099
2099
2099
2099
2098
2097
2096
2095
2094
2093
2093
2092
2091
2091
2091
2091
2090
2090
2090
2090
2089
2088
2087
2086
2085
2083
2081
2080
2078
2076
2074
2072
2071
2069
2068
2066
2065
2063
2061
2059
2057
2056
2054
2052
2050
2047
2045
2043
2042
2039
2037
2036
2035
2033
2032
2031
2029
2029
2028
2027
2026
2025
2023
2022
2021
2020
2018
2017
2016
2014
2014
2013
2012
2012
2011
2011
2011
2011
2011
2012
2011
2011
2011
2011
2011
2011
2010
2010
2009
2008
2007
2006
2006
2006
2006
2007
2007
2007
2007
2008
2008
2008
2009
2009
2010
2010
2010
2010
2011
2011
2011
2012
2012
2013
2014
2015
2016
2017
2017
2018
2019
2020
2020
2021
2021
2022
2022
2021
2021
2021
2021
2020
2020
2021
2021
2022
2022
2022
2023
2024
2025
2026
2026
2026
2027
2027
2026
2027
2026
2026
2027
2027
2027
2028
2028
2028
2029
2030
2031
2031
2032
2033
2034
2035
2034
2034
2035
2034
2034
2034
2034
2034
2034
2034
2035
2034
2035
2035
2035
2036
2036
2036
2037
2037
2038
2037
2038
2038
2037
2037
2037
2037
2037
2037
2036
2037
2037
2037
2037
2038
2038
2039
2039
2039
2040
2040
2040
2040
2040
2039
2039
2039
2038
2038
2038
2038
2039
2038
2039
2039
2039
2039
2039
2039
2039
2039
2039
2039
2039
2039
2039
2038
2038
2038
2038
2038
2038
2037
2038
2038
2038
2038
2039
2039
2038
2039
2039
2039
2038
2038
2037
2037
2036
2036
2035
2035
2034
2035
2035
2035
2035
2036
2036
2036
2035
2035
2035
2036
2035
2035
2035
2034
2034
2035
2034
2034
2034
2035
2035
2035
2036
2036
2036
2037
2037
2038
2038
2039
2038
2038
2038
2037
2037
2036
2036
2036
2036
2036
2035
2035
2035
2035
2035
2036
2036
2036
2036
2036
2036
2035
2034
2034
2033
2033
2032
2032
2032
2032
2032
2032
2033
2033
2033
2034
2034
2035
2036
2037
2038
2039
2040
2041
2041
2042
2043
2043
2044
2045
2046
2047
2049
2051
2052
2054
2055
2056
2057
2057
2057
2058
2058
2058
2058
2057
2057
2057
2056
2055
2054
2053
2053
2052
2051
2051
2051
2050
2050
2050
2050
2050
2049
2049
2048
2047
2046
2045
2045
2044
2043
2043
2042
2042
2042
2042
2042
2042
2043
2043
2043
2043
2043
2043
2043
2043
2043
2042
2042
2043
2043
2043
2043
2043
2044
2044
2044
2045
2045
2045
2045
2045
2045
2046
2045
2045
2045
2044
2044
2044
2044
2043
2043
2044
2044
2044
2045
2045
2045
2046
2046
2046
2045
2045
2045
2044
2043
2042
2042
2041
2041
2040
2038
2037
2036
2034
2032
2029
2026
2023
2020
2017
2015
2014
2014
2015
2017
2022
2029
2039
2053
2070
2090
2113
2138
2165
2196
2228
2261
2295
2331
2369
2406
2445
2484
2521
2557
2592
2623
2652
2675
2693
2705
2710
2708
2697
2677
2647
2607
2557
2498
2432
2362
2292
2224
2162
2105
2057
2016
1982
1956
1935
1919
1906
1897
1891
1887
1885
1886
1887
1889
1892
1895
1899
1902
1906
1910
1914
1918
1922
1926
1930
1932
1935
1937
1939
1941
1943
1944
1946
1948
1949
1951
1953
1954
1956
1957
1959
1960
1961
1962
1962
1963
1964
1965
1967
1967
1969
1970
1972
1973
1974
1976
1976
1978
1978
1979
1980
1981
1982
1983
1983
1984
1984
1985
1986
1987
1988
1989
1990
1992
1993
1994
1996
1997
1998
1999
2000
2001
2002
2003
2004
2005
2006
2007
2008
2009
2010
2011
2012
2013
2014
2015
2016
2017
2018
2019
2020
2020
2021
2021
2021
2022
2022
2022
2023
2023
2024
2025
2027
2028
2029
2030
2031
2033
2034
2035
2036
2036
2037
2037
2038
2038
2039
2040
2041
2041
2042
2043
2044
2046
2047
2048
2049
2050
2052
2053
2054
2055
2056
2057
2058
2058
2059
2059
2060
2060
2061
2061
2063
2064
2065
2067
2068
2070
2072
2073
2075
2076
2077
2078
2079
2081
2082
2082
2083
2083
2084
2085
2085
2086
2086
2087
2087
2088
2089
2090
2090
2091
2091
2092
2092
2092
2092
2093
2093
2093
2094
2095
2095
2096
2097
2098
2098
2099
2099
2099
2099
2099
2099
2098
2097
2096
2095
2093
2092
2091
2091
2090
2089
2088
2088
2087
2087
2087
2086
2086
2086
2085
2083
2083
2081
2080
2078
2076
2074
2072
2070
2069
2067
2065
2064
2062
2061
2058
2056
2054
2052
2050
2048
2046
2044
2041
2039
2037
2035
2033
2031
2030
2028
2027
2026
2025
2024
2023
2022
2021
2020
2020
2018
2018
2017
2016
2014
2013
2012
2011
2010
2009
2008
2008
2007
2007
2006
2006
2006
2006
2006
2007
2007
2007
2006
2006
2005
2005
2005
2004
2003
2003
2003
2002
2003
2003
2004
2005
2006
2007
2008
2009
2010
2010
2011
2011
2012
2011
2012
2011
2012
2011
2011
2012
2012
2013
2014
2015
2015
2016
2017
2017
2018
2019
2019
2020
2020
2020
2021
2021
2021
2021
2021
2022
2022
2023
2023
2024
2025
2026
2026
2028
2028
2029
2029
2029
2029
2028
2028
2028
2028
2028
2027
2027
2028
2028
2028
2029
2029
2030
2030
2031
2032
2033
2034
2035
2036
2037
2037
2037
2037
2037
2037
2037
2038
2038
2038
2038
2039
2039
2039
2039
2039
2039
2039
2040
2040
2039
2039
2039
2039
2038
2038
2037
2037
2037
2037
2037
2037
2037
2037
2037
2037
2038
2039
2039
2040
2040
2040
2040
2040
2040
2040
2040
2039
2039
2039
2039
2039
2038
2038
2039
2039
2038
2039
2038
2039
2039
2038
2038
2037
2037
2036
2036
2035
2035
2036
2035
2036
2036
2037
2037
2038
2038
2039
2039
2039
2039
2039
2039
2039
2038
2038
2038
2037
2037
2036
2036
2036
2036
2037
2037
2037
2038
2038
2038
2038
2039
2039
2038
2038
2038
2038
2038
2038
2038
2037
2037
2038
2038
2038
2039
2039
2039
2040
2041
2041
2042
2042
2042
2041
2041
2040
2040
2040
2039
2038
2038
2038
2038
2038
2038
2039
2039
2040
2041
2041
2041
2041
2041
2041
2041
2042
2042
2043
2043
2044
2044
2045
2046
2047
2048
2050
2051
2053
2054
2055
2056
2056
2057
2057
2056
2056
2055
2055
2055
2055
2055
2055
2054
2055
2054
2054
2053
2053
2052
2052
2052
2052
2051
2050
2050
2049
2049
2049
2048
2048
2049
2049
2048
2048
2048
2047
2047
2048
2048
2048
2048
2047
2047
2047
2047
2046
2046
2046
2045
2045
2045
2045
2045
2045
2045
2045
2046
2046
2046
2046
2047
2047
2047
2046
2047
2047
2046
2046
2046
2045
2045
2045
2045
2046
2046
2047
2047
2048
2049
2050
2051
2051
2052
2052
2053
2053
2052
2052
2050
2050
2048
2047
2046
2044
2043
2043
2042
2041
2039
2038
2036
2034
2031
2029
2027
2025
2022
2021
2020
2020
2022
2025
2032
2042
2057
2075
2097
2121
2147
2176
2208
2242
2276
2311
2348
2384
2423
2462
2499
2536
2571
2603
2631
2655
2673
2687
2693
2693
2685
2669
2644
2609
2565
2512
2450
2382
2313
2245
2180
2122
2070
2026
1989
1959
1936
1918
1906
1896
1890
1885
1883
1882
1883
1884
1886
1889
1893
1896
1900
1903
1907
1910
1913
1916
1920
1923
1927
1931
1934
1937
1939
1941
1943
1945
1947
1948
1949
1949
1950
1950
1951
1951
1952
1953
1955
1956
1958
1960
1962
1965
1967
1970
1973
1975
1978
1979
1981
1983
1985
1985
1986
1987
1988
1989
1989
1990
1991
1991
1992
1993
1995
1996
1996
1998
1999
2000
2000
2001
2002
2003
2003
2004
2005
2005
2006
2006
2006
2007
2008
2009
2011
2011
2013
2014
2015
2016
2017
2018
2020
2021
2022
2023
2023
2024
2024
2025
2025
2026
2027
2028
2029
2030
2032
2034
2035
2037
2039
2040
2041
2042
2043
2044
2044
2043
2044
2044
2044
2045
2045
2046
2048
2049
2050
2052
2054
2055
2057
2058
2059
2059
2060
2061
2062
2062
2063
2064
2064
2065
2066
2067
2068
2070
2072
2073
2076
2078
2079
2081
2082
2084
2085
2086
2087
2087
2089
2089
2090
2090
2091
2091
2092
2092
2093
2094
2095
2096
2098
2099
2100
2101
2101
2102
2102
2102
2102
2102
2102
2102
2102
2102
2103
2103
2103
2104
2104
2104
2104
2105
2105
2104
2104
2104
2104
2103
2102
2102
2101
2100
2099
2099
2098
2098
2098
2098
2097
2096
2095
2094
2093
2092
2090
2088
2087
2085
2084
2081
2079
2077
2075
2072
2070
2068
2066
2064
2063
2061
2059
2057
2056
2053
2051
2049
2047
2045
2043
2041
2038
2036
2034
2032
2031
2030
2028
2027
2026
2025
2024
2022
2021
2019
2019
2017
2016
2015
2013
2011
2010
2009
2007
2006
2005
2005
2005
2004
2004
2004
2004
2004
2004
2005
2005
2005
2005
2004
2004
2003
2003
2002
2002
2001
2001
2000
2000
2000
2001
2001
2001
2002
2002
2003
2004
2005
2005
2006
2006
2007
2007
2007
2007
2008
2008
2008
2009
2009
2009
2010
2011
2011
2012
2013
2014
2015
2016
2016
2017
2017
2018
2018
2018
2019
2019
2019
2019
2020
2021
2022
2022
2024
2024
2026
2027
2027
2027
2028
2029
2029
2029
2029
2029
2029
2029
2028
2029
2029
2029
2029
2030
2031
2031
2032
2033
2033
2034
2035
2035
2035
2035
2035
2035
2035
2035
2035
2035
2035
2035
2035
2036
2036
2037
2037
2038
2038
2038
2039
2039
2040
2040
2040
2040
2040
2040
2041
2041
2041
2041
2041
2041
2041
2041
2041
2041
2041
2041
2041
2042
2042
2042
2042
2042
2041
2041
2040
2040
2040
2040
2040
2040
2040
2040
2040
2041
2041
2041
2042
2043
2043
2043
2042
2042
2042
2041
2040
2040
2039
2039
2038
2038
2037
2037
2037
2038
2037
2038
2038
2038
2038
2037
2037
2037
2037
2036
2036
2036
2036
2036
2036
2036
2036
2037
2037
2038
2038
2039
2039
2039
2040
2040
2039
2039
2038
2037
2037
2036
2035
2034
2034
2034
2033
2032
2033
2032
2033
2033
2033
2033
2034
2034
2034
2034
2034
2034
2034
2034
2034
2034
2034
2034
2034
2035
2036
2037
2038
2039
2040
2041
2043
2044
2045
2046
2047
2048
2049
2050
2051
2051
2052
2053
2054
2054
2055
2056
2056
2056
2056
2056
2057
2056
2056
2055
2054
2053
2051
2050
2049
2047
2047
2046
2046
2046
2046
2046
2046
2046
2046
2047
2047
2047
2047
2046
2045
2044
2043
2043
2042
2042
2041
2041
2041
2042
2042
2042
2042
2042
2043
2043
2043
2043
2044
2044
2044
2044
2044
2044
2043
2043
2043
2043
2043
2043
2044
2044
2045
2045
2046
2047
2048
2048
2049
2049
2049
2049
2049
2049
2049
2049
2049
2048
2048
2047
2047
2047
2047
2047
2047
2047
2047
2048
2048
2047
2046
2046
2045
2043
2042
2039
2036
2033
2031
2028
2025
2023
2021
2021
2022
2024
2029
2035
2045
2058
2074
2094
2116
2140
2166
2194
2226
2258
2292
2326
2363
2400
2438
2477
2514
2551
2586
2619
2647
2672
2691
2704
2709
2707
2697
2676
2647
2607
2558
2499
2433
2363
2293
2226
2163
2108
2060
2021
1988
1962
1942
1927
1915
1906
1900
1896
1894
1893
1894
1895
1897
1900
1903
1907
1911
1915
1919
1924
1928
1933
1936
1940
1943
1945
1948
1949
1951
1952
1952
1953
1955
1956
1957
1958
1960
1962
1963
1965
1967
1968
1970
1971
1973
1974
1975
1976
1977
1978
1979
1981
1981
1982
1983
1984
1985
1987
1988
1989
1990
1992
1993
1995
1996
1997
1998
1998
1999
2000
2001
2001
2002
2003
2004
2004
2006
2007
2008
2008
2009
2010
2011
2012
2013
2013
2014
2015
2015
2015
2016
2017
2017
2017
2018
2018
2020
2021
2022
2023
2024
2025
2027
2028
2029
2030
2031
2031
2032
2033
2033
2034
2034
2034
2035
2035
2035
2035
2036
2038
2038
2040
2041
2042
2043
2045
2046
2047
2048
2049
2050
2050
2051
2051
2052
2053
2054
2055
2056
2058
2058
2060
2061
2062
2063
2065
2066
2067
2068
2070
2070
2071
2072
2073
2074
2076
2076
2077
2079
2081
2082
2084
2085
2087
2088
2089
2090
2091
2092
2092
2092
2093
2093
2093
2093
2094
2094
2095
2097
2098
2098
2099
2100
2101
2101
2102
2102
2103
2103
2103
2102
2102
2101
2101
2101
2100
2099
2099
2099
2099
2099
2099
2099
2100
2100
2100
2100
2100
2100
2099
2098
2097
2096
2095
2094
2092
2090
2089
2087
2085
2083
2081
2080
2078
2076
2075
2073
2072
2070
2068
2067
2064
2062
2060
2057
2055
2052
2050
2048
2046
2044
2043
2041
2040
2039
2038
2037
2036
2034
2033
2032
2031
2029
2028
2026
2025
2023
2022
2021
2019
2018
2018
2017
2016
2016
2015
2014
2014
2013
2013
2013
2013
2012
2011
2010
2009
2009
2009
2008
2008
2008
2008
2009
2009
2009
2009
2010
2010
2011
2011
2011
2011
2011
2011
2010
2011
2010
2010
2010
2011
2011
2011
2012
2012
2013
2014
2014
2014
2015
2015
2016
2016
2017
2016
2017
2017
2017
2017
2017
2017
2017
2018
2018
2019
2020
2020
2021
2022
2023
2024
2024
2025
2026
2026
2027
2028
2028
2028
2028
2029
2029
2029
2030
2031
2031
2032
2033
2034
2035
2036
2037
2038
2038
2038
2039
2038
2038
2038
2038
2038
2038
2038
2038
2037
2038
2037
2037
2037
2038
2038
2038
2038
2039
2039
2039
2039
2039
2038
2039
2039
2039
2039
2040
2040
2040
2041
2042
2042
2043
2044
2044
2044
2044
2044
2044
2044
2044
2043
2042
2041
2041
2040
2040
2040
2040
2040
2041
2041
2042
2042
2043
2043
2043
2043
2044
2043
2043
2043
2042
2042
2042
2041
2040
2040
2040
2040
2040
2040
2041
2041
2041
2041
2041
2041
2041
2041
2041
2040
2040
2040
2039
2039
2038
2038
2038
2038
2038
2038
2038
2039
2039
2040
2040
2040
2041
2041
2041
2041
2040
2040
2040
2040
2039
2039
2039
2039
2039
2039
2039
2039
2039
2040
2040
2040
2040
2040
2039
2038
2037
2037
2035
2035
2034
2033
2032
2032
2032
2032
2033
2033
2033
2034
2035
2036
2036
2038
2038
2040
2040
2041
2042
2042
2043
2044
2044
2046
2046
2048
2049
2050
2052
2053
2054
2055
2056
2057
2057
2057
2057
2057
2057
2057
2056
2056
2056
2055
2054
2053
2052
2052
2051
2051
2051
2050
2050
2050
2050
2049
2049
2049
2049
2048
2048
2047
2047
2047
2047
2046
2046
2046
2047
2047
2047
2047
2047
2048
2047
2047
2047
2047
2046
2046
2046
2045
2045
2044
2044
2044
2044
2044
2045
2045
2045
2046
2047
2047
2048
2049
2049
2049
2050
2050
2051
2051
2051
2051
2051
2051
2051
2051
2050
2050
2049
2049
2049
2048
2048
2048
2047
2046
2045
2044
2043
2042
2041
2039
2038
2037
2035
2034
2032
2029
2026
2024
2021
2018
2016
2015
2014
2014
2016
2019
2025
2033
2044
2059
2076
2097
2120
2146
2174
2204
2236
2269
2304
2340
2377
2415
2453
2491
2527
2563
2597
2629
2657
2681
2699
2711
2716
2713
2700
2679
2648
2606
2555
2495
2428
2358
2288
2220
2157
2102
2054
2014
1982
1956
1935
1920
1908
1899
1894
1890
1889
1889
1891
1893
1896
1900
1903
1908
1912
1916
1920
1925
1928
1931
1933
1936
1938
1940
1941
1943
1944
1946
1947
1948
1949
1950
1952
1953
1954
1955
1956
1957
1958
1960
1960
1961
1963
1964
1965
1967
1968
1969
1971
1973
1974
1976
1978
1979
1980
1981
1983
1984
1984
1986
1987
1988
1989
1990
1991
1992
1993
1994
1996
1997
1998
1999
2000
2001
2002
2003
2003
2004
2004
2004
2005
2005
2006
2006
2007
2008
2009
2010
2012
2013
2014
2015
2016
2017
2018
2019
2020
2021
2021
2021
2021
2021
2022
2023
2024
2024
2025
2026
2026
2027
2029
2030
2031
2032
2034
2035
2036
2037
2038
2038
2039
2039
2040
2040
2040
2041
2041
2042
2043
2043
2044
2046
2046
2048
2049
2050
2051
2052
2053
2054
2055
2056
2057
2057
2058
2059
2060
2061
2062
2063
2065
2066
2067
2068
2070
2070
2072
2072
2074
2075
2076
2077
2077
2078
2078
2079
2081
2082
2083
2085
2086
2087
2089
2090
2091
2092
2093
2093
2094
2095
2095
2095
2095
2095
2095
2095
2095
2095
2096
2096
2096
2096
2097
2097
2097
2097
2097
2097
2097
2097
2096
2095
2095
2094
2093
2092
2091
2091
2090
2089
2088
2087
2087
2086
2085
2084
2083
2081
2080
2078
2076
2075
2072
2071
2069
2067
2065
2063
2061
2059
2057
2056
2054
2052
2051
2050
2048
2047
2045
2044
2041
2039
2037
2035
2033
2031
2029
2027
2025
2023
2022
2021
2020
2019
2018
2018
2017
2016
2014
2014
2012
2012
2011
2009
2008
2007
2007
2006
2005
2005
2004
2004
2004
2004
2004
2005
2005
2005
2005
2006
2006
2006
2006
2006
2005
2005
2005
2005
2005
2005
2006
2006
2007
2008
2008
2009
2009
2010
2010
2011
2012
2012
2013
2013
2013
2013
2013
2013
2013
2014
2015
2015
2015
2016
2016
2016
2017
2017
2018
2018
2018
2019
2019
2019
2019
2019
2020
2020
2020
2021
2021
2021
2022
2023
2024
2025
2025
2026
2026
2027
2027
2027
2027
2027
2027
2027
2027
2027
2027
2027
2028
2028
2028
2029
2030
2030
2031
2032
2032
2033
2034
2035
2035
2036
2036
2035
2036
2036
2035
2035
2036
2036
2036
2036
2037
2037
2038
2038
2039
2040
2040
2041
2041
2041
2041
2041
2041
2040
2040
2040
2040
2040
2040
2040
2040
2040
2041
2041
2042
2042
2042
2043
2043
2042
2042
2042
2042
2041
2041
2041
2040
2039
2039
2038
2038
2038
2038
2038
2038
2038
2039
2040
2040
2040
2040
2040
2040
2039
2039
2039
2038
2038
2038
2037
2037
2037
2037
2038
2037
2037
2037
2037
2038
2037
2037
2037
2037
2036
2036
2036
2035
2035
2034
2034
2034
2034
2035
2035
2035
2036
2036
2036
2036
2036
2036
2036
2036
2036
2036
2036
2036
2036
2035
2035
2035
2036
2036
2037
2037
2037
2037
2037
2037
2038
2037
2037
2036
2036
2036
2036
2035
2035
2035
2035
2034
2034
2034
2034
2034
2034
2034
2034
2034
2034
2035
2035
2035
2035
2035
2034
2035
2035
2035
2036
2037
2037
2039
2040
2041
2042
2043
2044
2045
2046
2047
2049
2050
2051
2051
2052
2053
2053
2054
2054
2054
2054
2054
2054
2054
2054
2054
2055
2055
2054
2054
2054
2053
2052
2052
2051
2050
2049
2048
2048
2047
2046
2046
2046
2046
2046
2045
2045
2046
2045
2046
2045
2046
2045
2045
2045
2044
2044
2043
2043
2043
2043
2043
2043
2043
2044
2044
2044
2044
2045
2045
2045
2045
2045
2045
2045
2045
2045
2044
2044
2044
2044
2043
2043
2044
2044
2044
2044
2044
2044
2045
2046
2046
2046
2047
2046
2046
2046
2045
2044
2044
2044
2043
2043
2043
2043
2043
2042
2042
2042
2041
2040
2039
2037
2034
2031
2027
2023
2020
2016
2013
2010
2010
2010
2012
2016
2022
2032
2046
2062
2081
2103
2127
2154
2183
2214
2246
2280
2315
2351
2387
2425
2463
2501
2538
2573
2608
2639
2666
2689
2705
2714
2716
2709
2692
2665
2629
2583
2527
2463
2393
2322
2253
2187
2127
2076
2032
1996
1967
1944
1927
1914
1904
1897
1892
1890
1888
1889
1890
1892
1894
1898
1901
1904
1908
1912
1917
1921
1925
1929
1932
1935
1938
1940
1942
1943
1945
1946
1947
1948
1948
1949
1951
1952
1953
1954
1955
1957
1959
1960
1962
1964
1965
1967
1968
1970
1971
1972
1973
1974
1975
1976
1977
1978
1979
1980
1982
1983
1985
1986
1987
1989
1990
1991
1993
1994
1995
1995
1996
1996
1997
1997
1997
1997
1998
1998
1999
2000
2001
2002
2003
2004
2006
2007
2009
2010
2011
2012
2013
2014
2015
2016
2016
2017
2017
2018
2018
2019
2019
2020
2021
2021
2022
2023
2024
2025
2026
2027
2027
2027
2028
2028
2029
2030
2030
2030
2031
2032
2032
2033
2034
2036
2037
2038
2040
2041
2042
2043
2044
2045
2046
2047
2048
2048
2049
2050
2050
2051
2052
2053
2054
2055
2056
2057
2058
2059
2060
2061
2062
2064
2065
2065
2066
2067
2068
2069
2070
2071
2072
2074
2075
2076
2078
2079
2080
2081
2083
2084
2085
2086
2087
2087
2088
2088
2089
2089
2089
2090
2090
2091
2091
2091
2092
2093
2094
2094
2095
2096
2097
2097
2097
2097
2097
2097
2096
2096
2095
2094
2093
2092
2092
2091
2090
2090
2089
2089
2089
2088
2088
2087
2086
2085
2084
2082
2081
2080
2078
2076
2075
2074
2072
2071
2069
2068
2067
2066
2064
2063
2062
2061
2059
2057
2055
2053
2051
2050
2047
2045
2043
2041
2039
2037
2035
2033
2032
2030
2029
2028
2026
2025
2024
2023
2021
2020
2019
2017
2016
2015
2015
2013
2012
2011
2011
2010
2010
2010
2009
2009
2009
2009
2008
2008
2008
2008
2007
2006
2005
2005
2005
2005
2005
2005
2005
2005
2005
2005
2006
2006
2006
2007
2007
2007
2007
2007
2007
2007
2006
2006
2006
2006
2006
2006
2006
2007
2007
2007
2008
2009
2010
2011
2012
2013
2014
2015
2015
2016
2016
2016
2016
2016
2016
2016
2016
2017
2017
2017
2018
2018
2019
2020
2020
2021
2022
2022
2023
2024
2025
2025
2025
2025
2025
2025
2026
2026
2026
2027
2027
2028
2029
2029
2030
2031
2031
2031
2031
2031
2031
2031
2031
2031
2031
2030
2030
2031
2031
2031
2032
2032
2032
2033
2033
2034
2034
2035
2035
2035
2034
2034
2034
2034
2034
2034
2034
2034
2034
2034
2034
2034
2035
2035
2035
2036
2036
2036
2036
2036
2036
2035
2035
2035
2035
2035
2034
2034
2034
2034
2035
2035
2036
2036
2036
2037
2037
2037
2037
2036
2036
2036
2035
2034
2033
2033
2032
2032
2031
2031
2031
2032
2032
2032
2033
2034
2034
2035
2035
2035
2036
2036
2035
2035
2034
2034
2034
2034
2033
2033
2033
2032
2032
2032
2032
2032
2032
2031
2031
2031
2031
2032
2031
2031
2031
2031
2030
2030
2030
2030
2029
2029
2029
2029
2029
2030
2030
2030
2030
2030
2030
2031
2031
2031
2031
2031
2031
2031
2030
2030
2030
2030
2031
2032
2033
2033
2033
2034
2034
2034
2033
2033
2033
2033
2033
2032
2032
2032
2032
2031
2031
2031
2031
2031
2031
2032
2032
2032
2032
2033
2033
2033
2033
2032
2032
2032
2032
2032
2031
2031
2031
2032
2033
2033
2035
2036
2037
2039
2040
2042
2043
2044
2045
2046
2046
2047
2048
2048
2049
2049
2049
2049
2049
2049
2049
2049
2050
2051
2052
2052
2053
2053
2053
2053
2051
2050
2049
2047
2046
2045
2045
2044
2044
2043
2043
2042
2042
2042
2042
2042
2042
2042
2042
2042
2042
2041
2040
2040
2039
2038
2038
2038
2038
2038
2038
2039
2039
2040
2040
2041
2041
2041
2041
2041
2041
2041
2040
2040
2040
2039
2039
2039
2038
2038
2039
2039
2040
2041
2042
2043
2043
2044
2044
2045
2045
2044
2044
2044
2044
2044
2043
2043
2043
2043
2043
2043
2043
2042
2042
2041
2041
2040
2040
2039
2038
2036
2033
2030
2026
2022
2019
2015
2012
2009
2007
2006
2007
2009
2014
2021
2031
2045
2062
2082
2104
2128
2155
2185
2216
2250
2284
2320
2356
2394
2432
2471
2509
2546
2580
2613
2641
2666
2684
2697
2704
2702
2693
2674
2646
2608
2559
2502
2436
2367
2297
2228
2165
2108
2059
2018
1984
1957
1936
1920
1908
1899
1893
1889
1886
1885
1885
1887
1888
1891
1895
1898
1901
1905
1909
1914
1918
1923
1928
1932
1936
1939
1942
1944
1946
1948
1949
1950
1952
1952
1953
1954
1955
1956
1957
1958
1959
1961
1962
1964
1965
1966
1967
1968
1969
1970
1971
1972
1972
1973
1974
1975
1977
1978
1979
1980
1982
1984
1985
1987
1988
1990
1992
1993
1994
1995
1996
1997
1998
1999
2000
2001
2003
2003
2004
2005
2006
2007
2008
2008
2009
2010
2010
2011
2010
2011
2011
2011
2011
2011
2011
2012
2012
2013
2014
2014
2016
2017
2018
2019
2021
2022
2023
2025
2026
2027
2028
2029
2030
2030
2030
2032
2032
2033
2034
2035
2036
2038
2039
2040
2041
2042
2043
2044
2045
2045
2046
2047
2048
2048
2049
2049
2050
2051
2052
2053
2054
2056
2057
2059
2061
2062
2064
2065
2066
2067
2067
2068
2069
2069
2069
2070
2070
2071
2071
2072
2073
2073
2075
2076
2078
2080
2081
2082
2083
2084
2086
2087
2087
2088
2088
2089
2089
2089
2089
2089
2090
2090
2090
2091
2092
2093
2094
2095
2096
2097
2099
2099
2100
2101
2101
2100
2101
2100
2100
2100
2100
2099
2099
2099
2099
2099
2098
2096
2096
2095
2094
2093
2092
2091
2090
2089
2087
2086
2084
2083
2082
2080
2078
2077
2076
2075
2074
2073
2071
2070
2068
2066
2065
2063
2061
2059
2057
2055
2052
2050
2047
2044
2042
2040
2038
2037
2035
2034
2033
2031
2030
2029
2027
2026
2025
2024
2022
2021
2019
2018
2016
2015
2015
2014
2014
2013
2012
2012
2013
2012
2012
2011
2011
2011
2010
2010
2009
2008
2008
2007
2007
2007
2007
2006
2006
2006
2006
2006
2006
2006
2007
2007
2007
2008
2008
2008
2008
2009
2008
2009
2009
2009
2009
2010
2011
2012
2012
2013
2013
2013
2014
2014
2014
2015
2015
2015
2015
2015
2015
2016
2016
2016
2017
2018
2018
2019
2021
2022
2022
2023
2024
2025
2025
2026
2026
2027
2027
2027
2026
2026
2026
2026
2026
2026
2027
2027
2028
2029
2030
2031
2032
2033
2034
2035
2035
2035
2035
2035
2034
2034
2034
2035
2035
2035
2035
2036
2037
2038
2038
2039
2040
2041
2041
2042
2043
2044
2044
2044
2044
2043
2042
2042
2041
2041
2040
2040
2040
2040
2041
2041
2041
2041
2041
2041
2041
2041
2041
2041
2041
2040
2040
2040
2040
2040
2039
2039
2040
2039
2040
2040
2041
2041
2042
2042
2042
2042
2042
2041
2041
2041
2041
2041
2040
2039
2038
2038
2037
2036
2037
2036
2037
2036
2037
2037
2038
2038
2038
2039
2039
2039
2039
2039
2040
2040
2040
2040
2040
2040
2040
2041
2041
2041
2041
2040
2040
2040
2040
2040
2040
2040
2040
2039
2039
2038
2038
2037
2038
2038
2038
2038
2039
2039
2039
2039
2039
2039
2039
2039
2038
2038
2038
2038
2038
2038
2039
2039
2041
2042
2042
2044
2045
2046
2047
2048
2049
2051
2052
2053
2053
2053
2053
2053
2053
2053
2053
2053
2053
2053
2053
2053
2053
2053
2053
2052
2051
2051
2050
2049
2049
2048
2047
2047
2046
2046
2045
2044
2044
2044
2044
2044
2044
2045
2045
2046
2046
2047
2047
2047
2047
2047
2047
2047
2047
2046
2045
2045
2045
2044
2044
2044
2044
2044
2045
2045
2046
2047
2047
2047
2048
2048
2047
2047
2046
2046
2045
2044
2044
2043
2043
2043
2042
2042
2042
2042
2043
2044
2044
2045
2046
2046
2047
2048
2048
2048
2048
2048
2048
2048
2048
2048
2047
2047
2047
2047
2046
2045
2044
2042
2039
2036
2032
2029
2027
2024
2022
2020
2021
2023
2027
2033
2041
2054
2070
2089
2111
2136
2163
2193
2224
2257
2291
2327
2363
2400
2439
2477
2515
2552
2586
2617
2643
2665
2682
2694
2699
2697
2687
2668
2641
2604
2558
2501
2437
2369
2299
2232
2168
2112
2062
2019
1984
1955
1934
1917
1906
1897
1890
1885
1882
1882
1882
1884
1886
1889
1892
1895
1899
1903
1907
1910
1913
1917
1921
1925
1930
1933
1937
1940
1943
1946
1948
1950
1951
1953
1954
1955
1956
1958
1960
1962
1963
1965
1967
1968
1970
1971
1973
1975
1977
1979
1980
1982
1984
1985
1985
1986
1986
1987
1988
1988
1989
1990
1991
1992
1994
1995
1996
1997
1999
2000
2002
2003
2004
2005
2007
2008
2008
2009
2010
2010
2011
2011
2012
2014
2014
2015
2016
2017
2017
2018
2019
2020
2021
2021
2022
2022
2022
2023
2023
2024
2024
2025
2026
2026
2027
2028
2029
2030
2031
2031
2032
2033
2034
2035
2036
2037
2037
2038
2038
2039
2039
2039
2040
2041
2042
2043
2045
2046
2048
2050
2052
2053
2054
2056
2057
2058
2060
2061
2061
2062
2062
2063
2063
2064
2064
2065
2067
2068
2069
2070
2071
2073
2074
2076
2078
2080
2081
2082
2083
2084
2085
2086
2086
2087
2088
2089
2089
2090
2091
2092
2093
2094
2095
2097
2098
2099
2099
2100
2101
2101
2102
2102
2102
2103
2103
2103
2103
2103
2104
2104
2105
2105
2105
2106
2106
2106
2105
2105
2104
2103
2103
2102
2102
2101
2100
2100
2099
2098
2098
2097
2096
2095
2093
2092
2090
2088
2087
2085
2083
2081
2079
2077
2074
2073
2071
2069
2067
2066
2064
2062
2061
2060
2058
2057
2055
2053
2051
2049
2047
2045
2043
2041
2038
2036
2034
2032
2030
2028
2026
2025
2023
2022
2021
2020
2019
2019
2018
2017
2016
2014
2013
2012
2011
2010
2009
2008
2008
2007
2007
2007
2007
2006
2006
2007
2006
2006
2007
2006
2006
2005
2005
2004
2004
2003
2003
2002
2001
2001
2001
2001
2001
2002
2003
2004
2004
2005
2006
2006
2007
2007
2007
2007
2008
2007
2008
2008
2008
2009
2009
2009
2010
2010
2011
2012
2013
2014
2014
2015
2016
2016
2016
2017
2017
2017
2017
2018
2019
2019
2020
2020
2021
2021
2021
2022
2023
2023
2024
2024
2024
2025
2025
2026
2027
2028
2028
2029
2029
2030
2030
2031
2031
2032
2032
2033
2034
2034
2035
2036
2037
2037
2038
2038
2038
2039
2040
2040
2040
2040
2041
2041
2042
2042
2043
2043
2044
2044
2045
2045
2045
2045
2045
2044
2044
2044
2044
2043
2043
2043
2042
2043
2043
2043
2043
2044
2044
2045
2045
2046
2046
2047
2047
2047
2047
2046
2046
2045
2045
2045
2044
2044
2043
2043
2043
2044
2044
2044
2044
2043
2043
2044
2043
2042
2041
2041
2040
2039
2038
2038
2037
2037
2037
2037
2038
2038
2038
2039
2040
2040
2040
2040
2041
2041
2041
2041
2040
2040
2039
2038
2037
2037
2037
2037
2036
2036
2036
2036
2036
2036
2036
2036
2036
2037
2037
2037
2037
2037
2038
2037
2037
2038
2038
2038
2039
2039
2040
2041
2043
2044
2046
2048
2049
2050
2051
2052
2053
2054
2054
2055
2055
2055
2055
2056
2056
2056
2057
2057
2057
2057
2057
2057
2057
2057
2057
2055
2054
2053
2052
2051
2049
2049
2047
2047
2046
2046
2046
2046
2047
2047
2048
2048
2048
2048
2047
2046
2046
2045
2044
2043
2043
2043
2042
2042
2042
2042
2042
2042
2042
2042
2042
2042
2043
2043
2043
2043
2043
2043
2043
2043
2044
2043
2043
2043
2043
2043
2044
2044
2045
2045
2046
2047
2047
2048
2049
2049
2049
2049
2049
2049
2048
2048
2047
2046
2046
2046
2046
2046
2046
2047
2046
2046
2046
2045
2044
2043
2042
2040
2038
2036
2033
2029
2026
2024
2021
2019
2019
2019
2021
2024
2029
2037
2047
2061
2078
2098
2121
2146
2173
2201
2232
2265
2298
2332
2368
2404
2443
2480
2518
2554
2588
2619
2646
2669
2686
2697
2701
2697
2685
2663
2633
2592
2542
2484
2417
2348
2279
2212
2151
2096
2049
2010
1977
1952
1932
1917
1906
1897
1891
1886
1884
1884
1884
1886
1889
1893
1897
1901
1906
1910
1915
1919
1924
1929
1933
1937
1941
1944
1946
1947
1948
1950
1950
1951
1952
1954
1954
1955
1956
1957
1958
1960
1962
1963
1965
1967
1969
1970
1972
1973
1974
1975
1976
1978
1978
1979
1981
1982
1984
1985
1986
1987
1989
1990
1992
1993
1995
1996
1996
1997
1998
1999
1999
2000
2000
2001
2002
2002
2003
2004
2004
2005
2007
2008
2009
2010
2011
2012
2013
2014
2015
2016
2016
2017
2017
2017
2018
2018
2019
2019
2020
2021
2022
2023
2024
2025
2026
2027
2028
2029
2030
2030
2031
2031
2032
2033
2033
2034
2035
2035
2036
2037
2039
2040
2041
2042
2044
2045
2047
2048
2049
2050
2051
2052
2053
2054
2054
2054
2054
2054
2055
2056
2057
2058
2059
2061
2063
2064
2065
2066
2067
2068
2069
2071
2072
2072
2073
2074
2075
2076
2077
2078
2079
2080
2081
2082
2083
2085
2086
2088
2089
2090
2092
2092
2093
2094
2095
2095
2096
2096
2097
2097
2098
2098
2099
2100
2101
2102
2103
2104
2104
2105
2105
2105
2106
2106
2105
2105
2104
2104
2104
2103
2103
2102
2102
2102
2101
2101
2102
2101
2101
2101
2100
2099
2098
2096
2095
2093
2092
2090
2088
2086
2085
2083
2081
2080
2078
2077
2075
2073
2071
2069
2067
2065
2062
2060
2058
2055
2053
2050
2048
2046
2043
2042
2040
2039
2037
2036
2034
2033
2032
2030
2028
2027
2025
2023
2021
2019
2017
2015
2014
2013
2011
2011
2010
2008
2008
2007
2007
2007
2007
2007
2007
2007
2007
2007
2006
2006
2005
2005
2004
2004
2004
2004
2004
2004
2004
2005
2005
2006
2006
2007
2007
2008
2008
2008
2008
2008
2008
2008
2008
2008
2008
2008
2008
2008
2009
2009
2011
2011
2012
2013
2014
2015
2016
2016
2017
2017
2017
2018
2017
2018
2018
2018
2018
2018
2019
2019
2021
2021
2022
2023
2024
2024
2025
2025
2026
2026
2026
2026
2027
2027
2027
2027
2028
2028
2029
2029
2030
2030
2031
2032
2032
2033
2033
2034
2034
2035
2035
2035
2035
2035
2036
2036
2036
2036
2037
2037
2037
2038
2038
2039
2039
2040
2040
2041
2041
2041
2040
2040
2040
2040
2039
2039
2039
2039
2039
2039
2039
2039
2039
2040
2041
2041
2042
2042
2042
2042
2042
2042
2042
2042
2042
2042
2042
2042
2042
2042
2042
2043
2043
2044
2044
2044
2044
2044
2043
2043
2043
2043
2043
2042
2042
2041
2040
2040
2040
2039
2039
2039
2039
2039
2040
2040
2041
2041
2041
2041
2042
2041
2041
2040
2039
2039
2038
2038
2037
2036
2036
2036
2035
2035
2035
2034
2034
2034
2033
2033
2033
2033
2034
2034
2034
2034
2035
2035
2036
2036
2037
2038
2039
2040
2041
2043
2043
2045
2046
2047
2049
2050
2051
2052
2053
2053
2053
2053
2053
2053
2053
2053
2053
2053
2053
2054
2054
2054
2054
2053
2052
2051
2050
2049
2048
2047
2045
2045
2044
2044
2043
2043
2043
2043
2044
2044
2044
2044
2044
2044
2044
2044
2044
2044
2043
2043
2043
2043
2042
2042
2042
2042
2042
2042
2042
2043
2043
2043
2044
2045
2045
2045
2045
2045
2045
2045
2045
2045
2045
2046
2045
2046
2046
2046
2047
2046
2046
2046
2046
2046
2046
2046
2046
2046
2046
2046
2045
2045
2045
2044
2044
2043
2043
2042
2042
2042
2041
2041
2041
2040
2038
2037
2035
2032
2029
2026
2023
2020
2017
2014
2012
2011
2012
2014
2018
2025
2035
2049
2065
2085
2108
2132
2159
2189
2220
2253
2287
2322
2358
2395
2434
2472
2510
2547
2582
2616
2645
2671
2692
2707
2714
2714
2705
2687
2660
2622
2574
2517
2452
2381
2311
2241
2175
2117
2066
2023
1988
1960
1939
1923
1910
1901
1895
1891
1889
1889
1889
1891
1893
1896
1899
1903
1906
1909
1913
1917
1921
1925
1929
1932
1935
1938
1941
1942
1945
1946
1948
1949
1949
1949
1950
1950
1951
1952
1953
1954
1956
1957
1959
1960
1962
1965
1966
1968
1970
1971
1973
1974
1975
1977
1978
1978
1979
1980
1981
1982
1983
1984
1986
1987
1989
1990
1991
1993
1995
1996
1997
1998
1999
1999
2000
2000
2001
2001
2002
2002
2003
2003
2004
2005
2007
2008
2009
2010
2011
2012
2012
2013
2014
2015
2015
2016
2016
2017
2017
2018
2018
2019
2020
2022
2023
2024
2026
2026
2027
2028
2029
2029
2030
2030
2031
2032
2032
2032
2033
2034
2035
2036
2037
2038
2039
2040
2042
2043
2045
2046
2048
2049
2050
2051
2053
2053
2054
2054
2055
2055
2055
2055
2056
2056
2057
2058
2059
2060
2062
2063
2064
2066
2067
2068
2070
2071
2073
2074
2075
2076
2077
2079
2080
2082
2083
2085
2086
2088
2089
2091
2092
2093
2094
2095
2095
2095
2095
2095
2095
2095
2096
2096
2096
2097
2098
2098
2099
2100
2101
2102
2102
2103
2103
2104
2103
2103
2104
2103
2102
2102
2101
2101
2100
2099
2099
2098
2097
2097
2097
2096
2096
2095
2094
2092
2092
2090
2088
2087
2085
2083
2081
2078
2076
2075
2073
2071
2069
2067
2066
2064
2063
2062
2060
2057
2055
2054
2051
2049
2047
2044
2042
2040
2038
2036
2034
2032
2031
2029
2028
2027
2026
2025
2024
2023
2021
2020
2019
2017
2016
2014
2013
2012
2011
2010
2009
2009
2008
2008
2008
2008
2008
2008
2008
2008
2008
2007
2007
2006
2006
2005
2005
2004
2004
2004
2004
2004
2004
2004
2004
2005
2005
2006
2006
2006
2007
2007
2007
2007
2007
2007
2007
2007
2008
2008
2008
2008
2009
2009
2010
2011
2011
2012
2013
2013
2014
2014
2014
2015
2015
2015
2015
2016
2016
2016
2016
2016
2017
2018
2019
2019
2020
2020
2021
2022
2023
2024
2024
2024
2025
2025
2025
2025
2025
2025
2026
2026
2026
2027
2028
2028
2029
2030
2030
2031
2032
2033
2034
2034
2035
2035
2035
2035
2035
2035
2035
2035
2035
2036
2036
2036
2037
2037
2038
2038
2039
2040
2040
2040
2039
2039
2039
2039
2038
2038
2037
2037
2037
2037
2037
2038
2038
2039
2039
2040
2040
2041
2041
2042
2042
2042
2043
2042
2042
2042
2041
2041
2040
2040
2041
2040
2041
2041
2042
2042
2043
2043
2043
2044
2044
2044
2044
2043
2043
2043
2043
2042
2042
2042
2042
2041
2041
2041
2042
2042
2042
2042
2043
2043
2043
2043
2043
2043
2042
2041
2041
2040
2040
2039
2038
2038
2037
2037
2037
2038
2038
2038
2038
2038
2037
2037
2036
2036
2036
2036
2035
2035
2035
2035
2035
2035
2035
2036
2036
2037
2039
2040
2040
2042
2042
2044
2045
2045
2046
2047
2047
2048
2049
2050
2050
2051
2053
2053
2055
2055
2056
2057
2057
2057
2057
2057
2057
2056
2056
2055
2055
2053
2052
2051
2049
2049
2048
2048
2047
2047
2047
2047
2048
2048
2048
2047
2048
2048
2047
2047
2047
2046
2045
2045
2044
2044
2043
2043
2042
2042
2042
2043
2043
2043
2044
2044
2044
2044
2044
2044
2044
2044
2043
2043
2043
2042
2043
2043
2043
2043
2044
2045
2046
2046
2046
2047
2047
2047
2047
2048
2048
2048
2047
2046
2046
2047
2047
2046
2046
2046
2046
2046
2047
2047
2046
2046
2047
2046
2045
2045
2043
2042
2040
2039
2037
2035
2032
2029
2026
2023
2020
2017
2015
2014
2013
2014
2016
2020
2027
2036
2048
2064
2082
2104
2127
2153
2182
2213
2245
2278
2313
2349
2387
2425
2463
2502
2539
2575
2610
2641
2669
2692
2708
2718
2720
2714
2698
2674
2639
2594
2539
2476
2408
2338
2268
2202
2141
2087
2042
2004
1973
1948
1929
1914
1902
1894
1888
1885
1884
1884
1886
1888
1891
1894
1898
1903
1907
1912
1917
1921
1926
1930
1933
1936
1938
1940
1941
1943
1944
1946
1947
1949
1950
1951
1953
1954
1955
1957
1958
1960
1961
1962
1963
1965
1965
1966
1967
1968
1969
1970
1970
1972
1973
1974
1976
1978
1979
1980
1982
1984
1985
1986
1987
1988
1988
1989
1990
1991
1992
1993
1993
1994
1996
1997
1999
2000
2002
2003
2005
2006
2007
2008
2009
2010
2011
2011
2011
2011
2011
2011
2011
2011
2012
2012
2013
2013
2014
2015
2016
2017
2019
2020
2020
2021
2022
2023
2024
2024
2025
2026
2027
2027
2028
2030
2031
2032
2034
2035
2037
2038
2040
2040
2041
2042
2043
2043
2043
2044
2044
2044
2045
2045
2046
2047
2048
2049
2050
2052
2053
2054
2056
2057
2059
2060
2061
2061
2062
2063
2063
2064
2064
2065
2066
2066
2067
2069
2070
2071
2073
2075
2077
2078
2079
2081
2082
2083
2084
2085
2085
2086
2087
2088
2089
2090
2091
2092
2093
2094
2095
2096
2097
2098
2099
2100
2101
2101
2101
2101
2102
2102
2102
2101
2102
2102
2102
2102
2102
2101
2101
2101
2101
2101
2101
2100
2100
2099
2098
2096
2096
2095
2093
2092
2090
2089
2088
2087
2086
2085
2084
2083
2081
2080
2078
2077
2075
2074
2072
2069
2067
2064
2062
2060
2057
2056
2053
2051
2049
2047
2045
2044
2042
2040
2038
2036
2034
2032
2030
2028
2026
2025
2023
2021
2019
2018
2016
2015
2014
2013
2012
2012
2012
2011
2011
2010
2010
2009
2009
2008
2007
2006
2005
2005
2005
2004
2004
2003
2004
2003
2004
2004
2004
2004
2005
2005
2005
2005
2005
2004
2004
2004
2003
2003
2002
2002
2002
2002
2003
2003
2004
2004
2006
2006
2007
2007
2008
2008
2008
2009
2009
2009
2009
2009
2009
2009
2009
2010
2010
2011
2011
2012
2013
2014
2015
2016
2016
2017
2017
2017
2018
2018
2018
2018
2018
2018
2018
2018
2019
2019
2019
2019
2019
2020
2020
2021
2022
2023
2023
2024
2024
2025
2025
2025
2026
2026
2027
2027
2027
2028
2028
2029
2030
2031
2032
2032
2033
2034
2034
2034
2034
2034
2034
2033
2033
2032
2032
2032
2032
2032
2033
2033
2034
2035
2035
2036
2036
2037
2037
2037
2037
2037
2037
2037
2036
2036
2036
2036
2035
2035
2035
2035
2035
2035
2036
2036
2036
2036
2035
2036
2036
2036
2035
2035
2035
2035
2035
2035
2034
2034
2034
2034
2034
2034
2034
2035
2035
2035
2036
2036
2036
2036
2036
2036
2036
2036
2035
2035
2034
2034
2033
2033
2033
2033
2033
2033
2034
2035
2035
2035
2035
2036
2036
2035
2035
2035
2035
2034
2034
2034
2033
2033
2033
2033
2034
2034
2033
2033
2033
2032
2032
2032
2033
2032
2032
2031
2031
2030
2029
2029
2028
2028
2028
2028
2028
2029
2030
2030
2030
2031
2031
2032
2033
2033
2033
2034
2034
2035
2035
2037
2037
2039
2040
2041
2042
2043
2045
2046
2048
2050
2051
2052
2054
2054
2055
2055
2055
2055
2054
2053
2054
2053
2053
2054
2053
2052
2051
2050
2049
2048
2047
2046
2045
2044
2044
2043
2042
2042
2041
2041
2041
2041
2041
2041
2041
2042
2042
2041
2042
2042
2042
2042
2042
2043
2043
2043
2043
2042
2042
2042
2042
2041
2041
2042
2042
2042
2043
2043
2043
2044
2044
2044
2045
2045
2045
2045
2045
2045
2044
2043
2042
2041
2041
2040
2040
2041
2041
2041
2042
2043
2044
2045
2046
2047
2047
2048
2049
2049
2049
2048
2047
2046
2045
2044
2043
2041
2040
2038
2037
2035
2033
2031
2027
2023
2019
2016
2013
2010
2007
2006
2006
2008
2011
2018
2027
2040
2057
2077
2099
2124
2151
2180
2213
2246
2282
2317
2355
2393
2432
2471
2509
2547
2582
2615
2645
2671
2692
2707
2715
2716
2709
2693
2667
2630
2584
2528
2464
2394
2323
2253
2187
2127
2074
2030
1994
1964
1941
1924
1910
1900
1893
1889
1886
1885
1886
1888
1890
1893
1897
1901
1905
1909
1914
1918
1922
1927
1931
1935
1938
1940
1943
1945
1947
1948
1949
1951
1952
1954
1955
1956
1957
1957
1958
1959
1959
1960
1960
1961
1962
1963
1964
1965
1966
1967
1969
1971
1973
1974
1976
1978
1979
1981
1981
1983
1984
1984
1985
1986
1987
1987
1988
1989
1991
1992
1993
1994
1996
1997
1998
1999
2000
2000
2001
2001
2002
2002
2003
2004
2004
2005
2006
2007
2009
2010
2011
2012
2013
2014
2015
2016
2017
2018
2019
2020
2021
2021
2022
2023
2023
2024
2025
2026
2028
2030
2031
2032
2033
2034
2035
2035
2036
2036
2036
2036
2036
2037
2038
2039
2040
2041
2042
2043
2045
2046
2047
2049
2050
2052
2052
2053
2054
2055
2056
2057
2057
2058
2058
2058
2059
2060
2061
2063
2064
2066
2067
2068
2069
2070
2072
2073
2074
2076
2077
2077
2078
2079
2079
2080
2082
2082
2083
2084
2086
2087
2089
2090
2091
2093
2094
2095
2096
2096
2097
2098
2098
2098
2099
2099
2099
2099
2099
2100
2100
2100
2101
2101
2102
2102
2103
2103
2103
2104
2103
2104
2103
2103
2103
2102
2102
2101
2101
2100
2100
2099
2099
2098
2098
2097
2096
2095
2094
2092
2091
2090
2088
2086
2084
2082
2079
2078
2076
2073
2071
2070
2067
2066
2064
2061
2060
2058
2056
2054
2052
2050
2048
2045
2043
2041
2038
2036
2035
2033
2031
2030
2028
2027
2027
2026
2025
2024
2023
2022
2021
2020
2019
2017
2016
2014
2013
2011
2010
2010
2009
2009
2008
2008
2007
2007
2006
2006
2006
2006
2006
2005
2006
2005
2004
2004
2003
2003
2002
2002
2002
2003
2003
2004
2004
2004
2005
2006
2006
2007
2007
2007
2008
2008
2008
2008
2007
2007
2007
2008
2008
2008
2009
2010
2011
2013
2014
2015
2016
2017
2018
2019
2020
2021
2021
2021
2020
2020
2020
2020
2020
2020
2020
2020
2021
2022
2023
2025
2026
2027
2028
2029
2030
2030
2031
2031
2031
2031
2030
2030
2030
2029
2030
2030
2030
2031
2031
2032
2032
2033
2033
2034
2034
2034
2034
2034
2034
2034
2034
2033
2033
2033
2033
2034
2035
2035
2036
2037
2038
2039
2040
2041
2042
2042
2042
2043
2042
2042
2041
2041
2041
2040
2039
2040
2039
2039
2039
2039
2039
2039
2040
2040
2040
2040
2040
2041
2042
2042
2043
2043
2043
2043
2043
2044
2044
2044
2043
2043
2043
2043
2043
2043
2043
2043
2043
2042
2042
2041
2040
2040
2040
2039
2039
2038
2038
2038
2038
2038
2039
2040
2040
2041
2041
2042
2042
2043
2043
2043
2043
2043
2042
2041
2041
2040
2039
2039
2038
2038
2038
2038
2038
2038
2038
2039
2038
2038
2038
2038
2038
2038
2038
2037
2037
2037
2036
2036
2036
2036
2036
2036
2037
2038
2038
2040
2041
2042
2042
2043
2044
2044
2045
2046
2046
2047
2048
2048
2049
2050
2051
2053
2054
2055
2056
2057
2057
2058
2058
2058
2058
2057
2056
2056
2054
2053
2052
2051
2050
2048
2048
2047
2046
2046
2047
2047
2047
2048
2048
2048
2049
2049
2049
2049
2048
2047
2046
2045
2045
2044
2042
2042
2042
2042
2042
2042
2042
2043
2043
2043
2044
2044
2045
2045
2045
2045
2045
2045
2045
2046
2045
2045
2046
2046
2046
2047
2047
2047
2047
2047
2046
2046
2045
2045
2045
2044
2044
2044
2044
2044
2044
2045
2046
2046
2047
2047
2047
2047
2047
2048
2047
2047
2047
2046
2045
2044
2043
2042
2041
2039
2037
2035
2033
2030
2027
2024
2022
2019
2018
2017
2016
2018
2020
2025
2032
2042
2057
2074
2095
2118
2144
2171
2202
2235
2270
2307
2344
2382
2422
2462
2502
2539
2575
2608
2637
2661
2679
2692
2700
2701
2694
2678
2654
2620
2577
2524
2464
2397
2329
2262
2197
2139
2087
2042
2004
1973
1948
1929
1914
1903
1894
1888
1884
1882
1881
1883
1885
1888
1892
1897
1902
1907
1912
1916
1921
1925
1929
1933
1936
1940
1942
1945
1948
1950
1952
1954
1956
1957
1959
1960
1962
1964
1965
1966
1966
1967
1967
1968
1968
1968
1969
1969
1970
1971
1971
1973
1974
1976
1978
1980
1982
1984
1986
1988
1990
1991
1993
1993
1994
1995
1996
1997
1997
1998
1999
2000
2000
2001
2003
2004
2005
2006
2007
2008
2009
2009
2010
2010
2011
2011
2012
2012
2013
2014
2015
2016
2017
2017
2018
2020
2021
2021
2023
2023
2024
2025
2026
2026
2027
2027
2027
2028
2028
2028
2029
2030
2031
2032
2033
2035
2036
2037
2038
2040
2041
2042
2044
2044
2045
2046
2046
2047
2047
2048
2049
2049
2051
2052
2053
2054
2056
2057
2058
2060
2061
2061
2062
2063
2063
2064
2064
2065
2065
2066
2067
2068
2069
2071
2072
2074
2075
2077
2079
2080
2081
2082
2083
2084
2085
2085
2086
2086
2087
2088
2089
2089
2091
2092
2093
2095
2096
2098
2099
2100
2101
2102
2103
2103
2104
2104
2103
2104
2103
2103
2103
2102
2102
2102
2103
2103
2103
2103
2103
2104
2104
2104
2104
2103
2102
2101
2100
2099
2097
2095
2094
2093
2091
2090
2089
2088
2087
2086
2085
2084
2083
2081
2079
2077
2075
2072
2070
2068
2066
2064
2062
2060
2058
2056
2054
2052
2051
2049
2047
2045
2043
2041
2040
2038
2036
2034
2032
2030
2027
2025
2022
2020
2018
2016
2014
2013
2012
2011
2010
2010
2010
2010
2010
2010
2009
2009
2009
2008
2008
2007
2006
2005
2004
2003
2002
2002
2001
2001
2001
2001
2001
2001
2002
2002
2002
2003
2003
2003
2004
2004
2003
2003
2003
2003
2003
2003
2003
2003
2003
2004
2005
2005
2006
2007
2008
2008
2009
2009
2010
2010
2009
2010
2010
2010
2010
2010
2011
2012
2012
2013
2014
2015
2016
2016
2017
2018
2018
2019
2019
2020
2020
2020
2020
2021
2021
2022
2022
2023
2024
2025
2025
2026
2027
2028
2029
2029
2030
2031
2031
2031
2032
2032
2032
2032
2032
2033
2033
2033
2033
2033
2034
2035
2035
2035
2036
2037
2037
2038
2038
2038
2038
2038
2038
2037
2037
2037
2037
2038
2038
2039
2039
2040
2040
2041
2041
2042
2042
2042
2042
2042
2042
2042
2042
2041
2041
2041
2041
2041
2042
2042
2042
2043
2043
2044
2044
2045
2045
2045
2045
2044
2044
2044
2043
2042
2041
2041
2040
2040
2039
2039
2039
2039
2039
2039
2040
2040
2040
2040
2040
2040
2040
2040
2039
2039
2039
2039
2039
2038
2039
2039
2039
2039
2039
2039
2040
2040
2040
2040
2040
2040
2040
2039
2038
2037
2037
2036
2036
2035
2035
2034
2034
2035
2035
2036
2036
2037
2037
2037
2037
2038
2038
2037
2038
2037
2036
2036
2035
2035
2034
2035
2034
2035
2035
2036
2036
2038
2039
2040
2041
2042
2043
2043
2043
2043
2044
2044
2045
2045
2045
2046
2047
2048
2050
2051
2052
2053
2054
2054
2055
2056
2056
2056
2055
2056
2055
2055
2054
2052
2051
2050
2048
2047
2047
2046
2046
2045
2045
2045
2045
2044
2045
2045
2045
2045
2045
2045
2044
2044
2044
2043
2043
2042
2042
2042
2042
2042
2041
2042
2042
2042
2042
2042
2042
2042
2041
2041
2041
2041
2041
2041
2041
2041
2041
2042
2043
2044
2045
2046
2047
2047
2048
2049
2049
2048
2048
2048
2047
2048
2047
2046
2046
2046
2046
2046
2047
2047
2048
2048
2048
2048
2047
2047
2046
2045
2044
2043
2043
2041
2039
2038
2036
2033
2031
2028
2025
2022
2020
2018
2016
2015
2014
2015
2017
2020
2025
2033
2045
2060
2079
2100
2124
2150
2179
2210
2242
2276
2312
2349
2387
2425
2464
2502
2539
2574
2606
2635
2660
2679
2693
2701
2701
2693
2675
2649
2614
2568
2513
2450
2382
2313
2245
2180
2123
2072
2029
1993
1964
1942
1925
1911
1901
1894
1889
1887
1886
1887
1888
1891
1894
1898
1902
1907
1911
1915
1919
1922
1926
1929
1933
1936
1938
1940
1942
1944
1946
1947
1949
1951
1952
1953
1955
1956
1957
1959
1960
1961
1962
1963
1964
1965
1966
1967
1968
1969
1971
1972
1973
1975
1976
1978
1979
1980
1981
1983
1984
1985
1986
1987
1988
1989
1989
1990
1991
1992
1992
1994
1995
1997
1998
1999
2000
2001
2002
2003
2004
2005
2006
2007
2008
2008
2009
2009
2010
2010
2011
2011
2012
2013
2013
2014
2014
2015
2016
2017
2019
2020
2020
2021
2022
2022
2022
2022
2023
2024
2024
2025
2025
2027
2028
2030
2031
2032
2033
2035
2036
2037
2038
2038
2039
2039
2040
2040
2041
2041
2042
2043
2044
2045
2046
2048
2050
2051
2052
2054
2055
2057
2058
2059
2060
2061
2061
2062
2063
2063
2064
2064
2065
2066
2067
2069
2070
2071
2073
2074
2076
2078
2079
2081
2082
2082
2084
2085
2085
2086
2087
2087
2088
2089
2090
2091
2091
2092
2093
2095
2096
2097
2098
2098
2099
2099
2100
2100
2101
2101
2101
2101
2101
2101
2101
2101
2101
2101
2101
2102
2102
2102
2102
2101
2101
2100
2099
2098
2097
2096
2095
2094
2093
2091
2090
2090
2089
2087
2087
2086
2085
2084
2082
2080
2079
2076
2074
2072
2070
2067
2064
2061
2059
2056
2054
2052
2050
2048
2046
2045
2043
2042
2040
2038
2037
2036
2033
2032
2030
2028
2026
2024
2022
2021
2019
2017
2016
2014
2014
2012
2012
2011
2010
2009
2009
2008
2007
2007
2006
2005
2004
2004
2003
2002
2001
2001
2000
2000
2000
2000
2000
2001
2001
2002
2001
2002
2002
2001
2001
2001
2001
2001
2001
2001
2001
2001
2002
2002
2003
2004
2005
2006
2006
2007
2007
2007
2007
2007
2007
2007
2007
2007
2007
2007
2008
2008
2009
2009
2011
2011
2012
2013
2014
2014
2015
2015
2015
2016
2016
2016
2017
2017
2017
2017
2018
2018
2019
2019
2021
2021
2022
2023
2024
2025
2025
2026
2027
2027
2028
2028
2028
2028
2028
2029
2029
2028
2028
2029
2029
2029
2029
2029
2030
2030
2030
2031
2031
2032
2033
2033
2033
2034
2034
2034
2033
2033
2034
2034
2034
2034
2034
2035
2035
2036
2036
2037
2037
2037
2038
2037
2037
2037
2036
2036
2036
2035
2035
2035
2035
2035
2035
2035
2035
2036
2036
2036
2037
2038
2038
2038
2038
2038
2038
2038
2038
2037
2037
2036
2036
2036
2036
2036
2037
2037
2037
2037
2038
2038
2038
2039
2039
2038
2038
2038
2037
2037
2036
2036
2035
2035
2034
2034
2034
2034
2034
2034
2034
2034
2035
2035
2036
2036
2035
2035
2035
2035
2034
2034
2034
2034
2035
2034
2035
2035
2035
2035
2035
2036
2036
2036
2036
2036
2036
2036
2036
2035
2035
2035
2034
2033
2032
2032
2031
2031
2031
2032
2032
2032
2032
2033
2033
2033
2032
2033
2033
2032
2032
2033
2033
2033
2033
2034
2035
2036
2037
2038
2039
2041
2042
2043
2045
2045
2046
2048
2049
2049
2049
2050
2050
2051
2051
2051
2052
2052
2053
2053
2053
2053
2052
2052
2052
2051
2050
2049
2048
2047
2046
2045
2044
2043
2043
2043
2043
2043
2043
2043
2042
2043
2043
2043
2043
2044
2044
2044
2044
2043
2043
2042
2042
2042
2041
2040
2040
2040
2040
2040
2040
2040
2041
2041
2042
2042
2042
2043
2043
2043
2042
2043
2043
2043
2043
2044
2044
2044
2045
2045
2046
2046
2046
2046
2046
2046
2046
2046
2047
2047
2046
2046
2045
2044
2044
2043
2043
2042
2041
2040
2040
2039
2039
2039
2038
2036
2035
2033
2031
2027
2024
2021
2017
2013
2010
2007
2006
2005
2006
2008
2013
2021
2031
2046
2064
2085
2108
2133
2161
2191
2223
2256
2291
2326
2363
2401
2440
2479
2516
2553
2589
2621
2651
2676
2696
2710
2716
2715
2705
2686
2657
2617
2568
2509
2442
2372
2301
2233
2169
2111
2062
2020
1987
1960
1939
1922
1910
1900
1894
1890
1887
1886
1887
1888
1890
1893
1896
1900
1904
1908
1912
1917
1922
1926
1930
1933
1936
1939
1941
1943
1945
1946
1948
1949
1949
1949
1950
1951
1951
1952
1953
1955
1956
1958
1959
1961
1963
1964
1966
1967
1968
1969
1970
1971
1971
1972
1974
1974
1975
1976
1977
1979
1980
1981
1983
1984
1986
1987
1989
1990
1991
1992
1994
1994
1995
1996
1997
1997
1998
1999
2000
2001
2002
2003
2004
2005
2006
2007
2007
2007
2008
2009
2009
2009
2010
2010
2010
2011
2011
2012
2013
2013
2014
2015
2017
2017
2019
2021
2023
2024
2025
2026
2027
2027
2028
2029
2030
2030
2031
2031
2032
2033
2033
2033
2034
2036
2037
2038
2039
2040
2041
2042
2044
2045
2045
2046
2048
2048
2049
2050
2052
2053
2054
2056
2057
2059
2060
2061
2062
2063
2065
2065
2066
2067
2068
2069
2069
2070
2070
2071
2072
2073
2074
2076
2077
2078
2079
2080
2082
2083
2084
2085
2086
2087
2088
2088
2089
2090
2090
2091
2091
2091
2092
2093
2093
2094
2095
2097
2098
2098
2100
2101
2101
2102
2103
2103
2103
2103
2103
2103
2102
2102
2101
2101
2101
2100
2100
2099
2098
2098
2097
2097
2096
2095
2094
2092
2091
2090
2088
2086
2085
2083
2081
2080
2078
2076
2075
2073
2073
2071
2069
2068
2066
2063
2061
2059
2057
2054
2051
2049
2046
2043
2040
2038
2036
2034
2032
2030
2028
2027
2026
2024
2023
2022
2020
2019
2017
2016
2015
2013
2012
2010
2009
2008
2007
2007
2006
2005
2005
2004
2004
2004
2004
2003
2003
2002
2002
2001
2001
2000
1999
1998
1998
1997
1997
1997
1997
1997
1998
1998
2000
2000
2000
2001
2001
2001
2002
2002
2002
2002
2002
2001
2001
2001
2001
2001
2001
2001
2002
2003
2003
2004
2005
2007
2007
2008
2008
2009
2009
2010
2011
2011
2011
2011
2011
2011
2012
2012
2012
2013
2014
2015
2016
2016
2017
2018
2018
2019
2019
2019
2020
2020
2020
2020
2020
2020
2020
2020
2021
2022
2023
2024
2025
2026
2027
2027
2028
2028
2029
2029
2029
2029
2029
2028
2029
2029
2029
2029
2029
2029
2030
2030
2031
2031
2032
2033
2034
2034
2034
2034
2034
2033
2034
2034
2034
2034
2035
2035
2036
2036
2037
2037
2038
2038
2038
2039
2039
2040
2040
2040
2039
2039
2039
2038
2037
2037
2037
2037
2037
2036
2036
2037
2037
2037
2038
2038
2038
2038
2038
2039
2039
2038
2038
2037
2036
2036
2035
2034
2034
2034
2034
2034
2034
2034
2034
2035
2035
2035
2036
2036
2036
2036
2036
2036
2036
2035
2035
2034
2034
2034
2034
2033
2034
2034
2034
2034
2035
2036
2036
2036
2036
2036
2036
2036
2036
2035
2035
2034
2034
2033
2033
2033
2033
2033
2034
2035
2035
2036
2036
2037
2037
2036
2036
2036
2036
2036
2035
2035
2035
2035
2035
2035
2036
2036
2037
2037
2038
2038
2039
2039
2039
2040
2040
2039
2038
2038
2037
2037
2036
2036
2036
2036
2037
2037
2038
2039
2040
2041
2042
2043
2043
2043
2043
2043
2042
2042
2041
2040
2039
2038
2037
2037
2037
2037
2038
2038
2038
2038
2038
2038
2038
2038
2037
2037
2037
2036
2036
2036
2035
2035
2034
2035
2035
2035
2036
2036
2038
2039
2040
2041
2043
2044
2045
2046
2047
2048
2048
2049
2049
2050
2050
2051
2052
2053
2054
2055
2055
2056
2056
2056
2057
2057
2058
2058
2058
2058
2057
2056
2055
2053
2053
2052
2051
2051
2051
2050
2051
2051
2051
2051
2051
2051
2050
2050
2050
2050
2049
2049
2048
2047
2047
2046
2046
2045
2045
2045
2045
2045
2045
2045
2046
2046
2045
2046
2045
2046
2045
2045
2045
2045
2045
2044
2044
2044
2043
2044
2044
2045
2045
2046
2046
2047
2047
2047
2047
2047
2047
2047
2047
2047
2046
2046
2045
2046
2046
2045
2046
2046
2046
2046
2046
2046
2046
2046
2046
2046
2044
2044
2042
2040
2038
2035
2032
2028
2024
2020
2017
2014
2011
2008
2007
2008
2010
2013
2018
2027
2038
2053
2071
2091
2115
2140
2168
2199
2231
2264
2298
2334
2371
2409
2448
2486
2523
2559
2593
2625
2652
2676
2693
2705
2710
2707
2694
2673
2642
2601
2550
2491
2425
2355
2285
2218
2156
2102
2056
2017
1985
1960
1940
1924
1911
1903
1896
1892
1890
1890
1890
1891
1894
1897
1901
1904
1909
1913
1917
1922
1926
1929
1933
1935
1937
1939
1941
1942
1943
1944
1946
1947
1948
1950
1951
1952
1954
1955
1957
1959
1960
1961
1962
1964
1965
1966
1968
1969
1970
1972
1973
1974
1975
1977
1978
1979
1980
1982
1983
1985
1986
1987
1987
1988
1988
1989
1990
1990
1991
1992
1992
1993
1994
1995
1996
1997
1998
1999
2000
2001
2002
2003
2004
2005
2005
2006
2006
2007
2008
2008
2009
2009
2010
2011
2011
2013
2014
2015
2016
2018
2018
2019
2020
2021
2021
2021
2022
2023
2023
2024
2024
2025
2026
2027
2029
2030
2031
2032
2033
2034
2035
2037
2038
2039
2039
2040
2040
2041
2042
2042
2043
2043
2044
2045
2046
2047
2048
2049
2050
2051
2052
2053
2055
2055
2056
2057
2058
2059
2060
2061
2062
2063
2064
2065
2066
2068
2069
2070
2071
2073
2074
2075
2077
2078
2079
2080
2081
2082
2083
2084
2085
2086
2086
2087
2088
2089
2090
2091
2092
2093
2095
2095
2096
2097
2097
2098
2099
2099
2099
2099
2099
2099
2098
2098
2099
2099
2100
2100
2101
2101
2102
2102
2103
2103
2103
2102
2101
2100
2100
2099
2098
2097
2095
2094
2093
2092
2091
2090
2089
2089
2088
2086
2085
2084
2083
2081
2079
2077
2075
2072
2070
2067
2065
2063
2060
2058
2056
2053
2051
2050
2048
2046
2044
2042
2041
2039
2037
2035
2033
2031
2030
2028
2026
2025
2024
2022
2021
2019
2018
2017
2016
2015
2015
2014
2012
2012
2011
2010
2009
2008
2007
2006
2005
2004
2004
2003
2002
2001
2001
2000
2000
2001
2001
2002
2002
2002
2002
2003
2003
2003
2003
2003
2003
2003
2003
2003
2003
2003
2004
2004
2004
2005
2006
2006
2006
2007
2008
2008
2009
2009
2009
2009
2009
2009
2009
2009
2010
2010
2011
2012
2013
2013
2014
2015
2015
2016
2017
2017
2017
2017
2017
2018
2018
2018
2018
2018
2018
2018
2018
2019
2019
2021
2021
2022
2023
2024
2025
2026
2027
2027
2027
2028
2027
2027
2028
2027
2027
2028
2028
2027
2028
2029
2029
2030
2030
2030
2031
2031
2031
2032
2031
2031
2031
2031
2030
2030
2030
2030
2030
2030
2031
2031
2032
2032
2033
2033
2034
2034
2034
2034
2034
2034
2034
2034
2034
2034
2034
2034
2034
2034
2034
2034
2035
2035
2036
2036
2037
2037
2037
2037
2037
2037
2037
2036
2036
2035
2035
2035
2035
2035
2035
2035
2035
2035
2036
2036
2037
2037
2038
2038
2038
2039
2038
2038
2038
2038
2037
2037
2037
2037
2037
2036
2037
2037
2037
2037
2038
2038
2038
2039
2038
2039
2038
2038
2038
2037
2037
2036
2036
2035
2034
2034
2034
2034
2034
2035
2035
2035
2036
2036
2036
2036
2036
2035
2036
2035
2035
2035
2034
2034
2035
2034
2035
2035
2035
2036
2036
2037
2038
2038
2039
2039
2039
2039
2039
2038
2038
2038
2038
2038
2037
2037
2037
2038
2038
2038
2039
2039
2040
2040
2041
2041
2041
2041
2041
2040
2040
2040
2040
2039
2039
2039
2039
2040
2040
2040
2041
2041
2042
2042
2042
2042
2043
2043
2043
2043
2043
2043
2043
2043
2042
2042
2041
2041
2041
2041
2041
2040
2041
2041
2041
2041
2041
2042
2042
2041
2042
2041
2041
2040
2040
2039
2039
2039
2039
2039
2039
2039
2039
2040
2041
2041
2043
2043
2044
2045
2046
2047
2047
2048
2048
2049
2049
2051
2052
2053
2054
2056
2057
2058
2059
2059
2060
2060
2061
2060
2060
2060
2060
2059
2059
2057
2056
2056
2055
2054
2054
2054
2053
2053
2053
2053
2053
2052
2052
2051
2050
2050
2049
2049
2048
2048
2047
2046
2045
2045
2044
2044
2044
2044
2044
2044
2044
2045
2045
2044
2044
2045
2044
2044
2044
2043
2044
2044
2044
2044
2045
2045
2046
2046
2047
2049
2049
2050
2050
2051
2051
2051
2051
2051
2050
2050
2050
2049
2049
2049
2048
2048
2048
2048
2048
2049
2049
2048
2048
2048
2048
2047
2047
2046
2044
2043
2042
2041
2039
2037
2034
2032
2028
2025
2023
2020
2017
2015
2013
2013
2013
2015
2020
2026
2036
2049
2065
2084
2106
2130
2157
2187
2218
2251
2286
2321
2357
2395
2432
2470
2507
2544
2578
2611
2640
2664
2683
2698
2706
2706
2698
2682
2656
2620
2574
2519
2456
2389
2319
2251
2186
2128
2077
2034
1998
1970
1947
1930
1916
1906
1899
1894
1891
1890
1891
1893
1895
1899
1902
1906
1910
1914
1919
1923
1927
1930
1933
1936
1938
1940
1942
1944
1945
1947
1948
1949
1950
1952
1953
1954
1955
1957
1958
1958
1960
1961
1962
1963
1964
1965
1966
1967
1968
1970
1971
1972
1974
1976
1978
1980
1982
1983
1984
1985
1986
1987
1988
1988
1990
1990
1991
1992
1993
1994
1994
1995
1996
1997
1998
1999
2000
2001
2002
2003
2003
2004
2004
2005
2005
2006
2006
2007
2007
2008
2009
2010
2011
2013
2014
2015
2016
2018
2019
2019
2020
2021
2021
2021
2022
2023
2024
2024
2025
2026
2027
2027
2029
2029
2030
2031
2031
2032
2033
2034
2035
2035
2036
2037
2037
2037
2038
2039
2040
2041
2042
2042
2044
2045
2046
2048
2049
2050
2051
2052
2053
2053
2054
2054
2055
2056
2056
2057
2057
2058
2060
2061
2062
2064
2065
2067
2068
2070
2071
2073
2074
2075
2076
2077
2078
2079
2079
2080
2081
2082
2082
2083
2085
2085
2087
2088
2089
2091
2091
2092
2093
2094
2095
2095
2095
2095
2096
2096
2096
2097
2096
2097
2097
2098
2098
2099
2099
2100
2101
2101
2102
2102
2101
2101
2101
2100
2099
2098
2098
2097
2096
2094
2094
2093
2092
2091
2090
2089
2088
2087
2085
2084
2083
2081
2079
2077
2075
2074
2071
2069
2067
2066
2063
2061
2060
2058
2056
2054
2053
2051
2049
2047
2045
2043
2041
2040
2038
2035
2033
2032
2029
2028
2026
2024
2023
2021
2020
2020
2019
2017
2017
2016
2015
2014
2013
2012
2010
2009
2008
2007
2006
2005
2004
2004
2003
2003
2003
2002
2002
2003
2003
2003
2003
2003
2003
2003
2003
2003
2003
2003
2003
2002
2003
2003
2003
2004
2004
2005
2005
2006
2006
2007
2007
2007
2008
2008
2007
2007
2007
2007
2008
2007
2007
2008
2008
2008
2009
2010
2010
2011
2012
2013
2013
2014
2014
2014
2015
2015
2015
2015
2014
2015
2015
2015
2015
2015
2016
2016
2017
2018
2018
2019
2020
2021
2022
2022
2022
2022
2023
2023
2023
2023
2023
2023
2023
2024
2024
2025
2025
2026
2026
2027
2028
2029
2030
2030
2031
2031
2031
2031
2031
2031
2031
2031
2031
2032
2032
2032
2033
2034
2034
2035
2036
2036
2037
2037
2037
2037
2036
2036
2036
2035
2035
2035
2035
2036
2036
2036
2037
2037
2038
2038
2039
2039
2039
2040
2039
2039
2039
2039
2039
2038
2038
2038
2038
2038
2038
2038
2039
2039
2039
2039
2040
2040
2040
2039
2039
2039
2039
2039
2038
2038
2038
2038
2037
2037
2037
2037
2037
2036
2037
2037
2037
2037
2037
2037
2037
2037
2038
2038
2037
2037
2037
2037
2036
2036
2036
2036
2036
2036
2036
2037
2037
2037
2037
2038
2037
2037
2037
2037
2037
2037
2036
2036
2036
2036
2036
2036
2035
2036
2036
2036
2036
2037
2037
2037
2038
2038
2038
2038
2039
2038
2039
2038
2038
2038
2038
2038
2038
2038
2039
2039
2039
2040
2040
2040
2041
2041
2041
2042
2042
2041
2041
2041
2040
2040
2040
2040
2040
2040
2040
2040
2040
2041
2041
2042
2042
2042
2043
2043
2043
2042
2042
2042
2042
2042
2041
2042
2041
2041
2042
2042
2042
2043
2043
2044
2044
2045
2045
2045
2045
2044
2044
2044
2044
2044
2043
2043
2043
2042
2042
2042
2042
2042
2042
2042
2042
2043
2043
2043
2043
2043
2043
2042
2042
2042
2042
2042
2041
2042
2042
2042
2042
2042
2042
2043
2043
2044
2045
2046
2047
2047
2048
2049
2049
2050
2050
2050
2051
2052
2053
2054
2055
2056
2058
2059
2060
2061
2061
2062
2062
2062
2062
2062
2062
2062
2061
2061
2060
2060
2059
2057
2056
2056
2055
2055
2054
2054
2054
2054
2054
2053
2053
2053
2053
2052
2052
2051
2051
2051
2050
2051
2051
2051
2050
2051
2050
2050
2051
2050
2050
2050
2049
2049
2049
2048
2048
2048
2048
2047
2047
2047
2047
2047
2048
2048
2049
2049
2050
2050
2051
2051
2051
2052
2052
2052
2051
2051
2050
2049
2048
2047
2047
2046
2046
2047
2047
2047
2047
2047
2047
2047
2048
2048
2047
2047
2046
2046
2045
2043
2041
2040
2038
2036
2034
2031
2028
2026
2022
2020
2017
2015
2012
2012
2012
2014
2017
2023
2032
2044
2059
2076
2097
2120
2145
2174
2204
2235
2268
2303
2338
2375
2412
2450
2488
2524
2560
2593
2624
2650
2672
2689
2699
2702
2698
2685
2663
2631
2590
2538
2479
2412
2344
2275
2209
2149
2096
2050
2012
1982
1957
1938
1922
1911
1903
1897
1894
1893
1892
1893
1895
1897
1901
1904
1907
1912
1915
1920
1924
1928
1931
1934
1936
1938
1940
1942
1944
1945
1947
1948
1949
1951
1951
1953
1954
1955
1956
1957
1958
1959
1959
1961
1961
1962
1963
1964
1964
1966
1967
1968
1970
1972
1973
1975
1977
1978
1979
1980
1982
1983
1984
1984
1986
1987
1988
1989
1990
1992
1993
1994
1995
1997
1997
1999
1999
2000
2001
2002
2002
2003
2003
2004
2005
2005
2006
2006
2007
2009
2010
2011
2013
2014
2015
2016
2017
2017
2018
2019
2020
2020
2020
2020
2020
2020
2020
2021
2021
2022
2023
2024
2025
2026
2028
2029
2031
2033
2034
2035
2036
2037
2037
2037
2037
2038
2038
2038
2039
2039
2040
2041
2042
2044
2045
2046
2048
2049
2051
2052
2053
2054
2054
2055
2056
2056
2057
2058
2058
2059
2059
2060
2061
2062
2064
2065
2066
2067
2068
2069
2070
2071
2071
2072
2073
2073
2074
2075
2076
2078
2079
2080
2081
2082
2083
2085
2086
2087
2088
2089
2090
2092
2092
2093
2094
2094
2095
2095
2095
2096
2097
2097
2098
2098
2099
2100
2100
2101
2101
2102
2101
2101
2101
2100
2100
2099
2098
2097
2096
2096
2094
2094
2093
2092
2092
2092
2092
2092
2091
2090
2089
2089
2087
2086
2085
2084
2082
2080
2078
2075
2073
2071
2069
2067
2065
2063
2060
2058
2056
2054
2051
2049
2047
2045
2042
2041
2039
2037
2035
2033
2031
2029
2028
2026
2024
2023
2022
2021
2020
2019
2018
2017
2016
2015
2014
2012
2011
2010
2009
2008
2007
2007
2007
2007
2007
2007
2006
2007
2006
2007
2007
2007
2007
2006
2006
2005
2004
2003
2002
2002
2001
2001
2001
2001
2001
2001
2001
2002
2003
2004
2004
2005
2006
2007
2007
2007
2007
2007
2007
2007
2006
2006
2006
2006
2006
2007
2007
2008
2008
2009
2010
2011
2012
2012
2012
2013
2013
2014
2014
2014
2015
2015
2015
2016
2016
2017
2018
2019
2020
2021
2021
2022
2022
2023
2024
2025
2026
2027
2027
2029
2029
2030
2031
2031
2032
2034
2034
2035
2035
2036
2037
2037
2037
2037
2037
2037
2036
2036
2036
2036
2035
2034
2034
2033
2033
2032
2032
2033
2033
2033
2034
2034
2035
2035
2035
2035
2035
2034
2034
2035
2035
2034
2034
2034
2034
2034
2035
2035
2035
2036
2037
2037
2037
2038
2038
2039
2039
2039
2039
2039
2039
2039
2039
2040
2040
2041
2041
2041
2041
2042
2041
2042
2042
2042
2041
2041
2041
2041
2040
2040
2039
2039
2038
2038
2037
2036
2036
2035
2035
2036
2036
2037
2037
2037
2038
2039
2039
2039
2039
2039
2039
2038
2037
2037
2036
2036
2035
2036
2036
2037
2037
2038
2039
2039
2040
2040
2040
2040
2040
2040
2039
2039
2038
2038
2037
2038
2038
2037
2037
2037
2037
2037
2038
2039
2039
2039
2039
2040
2040
2040
2040
2039
2039
2039
2038
2038
2038
2039
2039
2039
2040
2041
2042
2042
2043
2043
2043
2043
2043
2043
2043
2043
2043
2043
2043
2043
2043
2042
2042
2042
2042
2042
2043
2043
2043
2043
2043
2044
2044
2044
2043
2043
2043
2042
2042
2041
2041
2041
2040
2041
2041
2041
2041
2042
2042
2042
2043
2043
2043
2043
2044
2044
2043
2043
2042
2041
2041
2040
2041
2041
2041
2041
2042
2044
2045
2046
2047
2048
2049
2050
2051
2052
2053
2053
2054
2055
2056
2057
2058
2058
2059
2059
2060
2060
2061
2061
2062
2062
2062
2063
2062
2062
2061
2060
2058
2057
2055
2054
2053
2053
2052
2052
2051
2051
2051
2052
2052
2053
2053
2054
2054
2054
2053
2053
2053
2052
2051
2050
2049
2048
2048
2047
2046
2046
2046
2046
2046
2046
2045
2045
2045
2044
2044
2043
2043
2042
2041
2042
2042
2041
2042
2042
2043
2044
2044
2045
2045
2046
2047
2047
2048
2049
2049
2049
2050
2050
2050
2050
2050
2050
2049
2050
2049
2050
2050
2050
2050
2051
2051
2052
2051
2052
2051
2051
2049
2048
2046
2043
2039
2036
2032
2028
2024
2021
2019
2017
2016
2018
2020
2025
2032
2042
2055
2072
2093
2114
2139
2165
2193
2224
2256
2290
2325
2361
2399
2437
2475
2513
2549
2582
2613
2638
2659
2675
2685
2687
2682
2670
2648
2618
2578
2529
2470
2405
2337
2269
2205
2145
2093
2047
2009
1977
1952
1933
1920
1908
1900
1895
1891
1888
1888
1889
1891
1893
1897
1901
1905
1910
1914
1919
1923
1928
1932
1936
1939
1943
1946
1948
1951
1952
1954
1955
1956
1957
1959
1960
1960
1962
1963
1964
1966
1968
1969
1971
1972
1974
1975
1977
1978
1978
1980
1981
1982
1983
1984
1985
1986
1987
1989
1990
1992
1993
1995
1995
1996
1997
1998
1999
1999
2000
2000
2001
2001
2002
2002
2003
2004
2005
2006
2007
2009
2010
2012
2013
2014
2015
2016
2017
2018
2018
2019
2019
2019
2019
2020
2020
2021
2022
2023
2024
2025
2026
2027
2028
2028
2029
2030
2031
2031
2032
2033
2033
2034
2035
2036
2036
2037
2038
2040
2041
2042
2043
2044
2046
2047
2047
2048
2049
2050
2051
2051
2051
2052
2053
2053
2053
2054
2055
2056
2057
2059
2060
2062
2063
2064
2066
2067
2068
2069
2070
2071
2072
2073
2074
2075
2076
2076
2077
2079
2080
2081
2083
2084
2086
2087
2089
2090
2091
2092
2093
2094
2095
2095
2095
2096
2097
2097
2098
2098
2100
2100
2101
2103
2103
2105
2105
2106
2107
2107
2108
2108
2108
2108
2108
2108
2107
2106
2106
2106
2105
2105
2105
2105
2105
2105
2106
2105
2105
2105
2104
2103
2102
2102
2101
2099
2099
2097
2096
2094
2092
2091
2089
2088
2086
2084
2082
2080
2078
2076
2073
2071
2069
2067
2065
2063
2060
2058
2055
2053
2051
2049
2047
2046
2044
2043
2042
2040
2038
2037
2035
2033
2032
2030
2027
2025
2023
2021
2020
2018
2017
2016
2014
2013
2013
2012
2011
2011
2010
2010
2009
2008
2007
2007
2006
2005
2004
2003
2003
2002
2001
2001
2000
2000
2001
2001
2001
2001
2001
2001
2001
2002
2002
2002
2003
2003
2003
2003
2003
2004
2004
2005
2005
2006
2006
2007
2008
2009
2009
2010
2011
2011
2011
2011
2011
2011
2011
2010
2011
2010
2010
2010
2011
2011
2012
2012
2013
2014
2015
2015
2016
2017
2018
2019
2020
2020
2021
2021
2021
2022
2022
2023
2023
2024
2023
2024
2025
2025
2026
2027
2028
2028
2028
2029
2030
2030
2030
2030
2031
2031
2031
2031
2032
2032
2033
2033
2034
2034
2035
2035
2036
2037
2038
2038
2039
2039
2039
2040
2040
2040
2040
2040
2040
2040
2040
2041
2041
2042
2043
2043
2044
2045
2045
2045
2045
2045
2045
2044
2044
2044
2044
2043
2043
2043
2043
2043
2043
2043
2043
2043
2043
2044
2043
2043
2043
2043
2042
2042
2042
2041
2041
2042
2041
2042
2042
2042
2042
2042
2042
2042
2043
2043
2043
2043
2043
2042
2042
2041
2041
2041
2041
2040
2039
2038
2038
2038
2037
2038
2038
2038
2039
2039
2039
2040
2040
2040
2039
2039
2040
2040
2039
2039
2038
2038
2038
2038
2039
2039
2039
2039
2039
2040
2040
2040
2041
2041
2041
2041
2041
2040
2040
2040
2039
2039
2038
2038
2039
2039
2039
2040
2040
2040
2039
2040
2039
2039
2039
2039
2039
2038
2038
2037
2037
2037
2037
2037
2037
2038
2038
2039
2041
2042
2044
2045
2046
2048
2049
2050
2051
2051
2051
2052
2052
2053
2053
2054
2054
2054
2054
2055
2055
2056
2056
2056
2057
2057
2057
2057
2057
2057
2057
2056
2054
2053
2052
2051
2050
2049
2048
2048
2047
2047
2047
2047
2046
2046
2047
2047
2046
2046
2046
2046
2045
2045
2045
2045
2045
2045
2045
2046
2045
2045
2046
2046
2047
2047
2047
2047
2047
2047
2047
2047
2047
2046
2046
2046
2046
2046
2046
2045
2046
2046
2047
2046
2047
2047
2047
2047
2048
2048
2048
2048
2047
2047
2047
2047
2047
2047
2047
2047
2047
2047
2047
2047
2047
2048
2048
2048
2048
2047
2047
2046
2044
2042
2040
2038
2035
2032
2029
2025
2023
2021
2020
2019
2020
2022
2025
2031
2038
2050
2064
2082
2103
2125
2151
2178
2208
2239
2273
2307
2343
2379
2417
2456
2494
2531
2565
2598
2627
2651
2671
2685
2692
2692
2685
2668
2643
2609
2564
2510
2448
2381
2313
2245
2182
2125
2074
2032
1996
1967
1945
1927
1914
1905
1898
1893
1889
1887
1888
1889
1891
1894
1898
1903
1907
1911
1916
1920
1924
1928
1932
1935
1939
1941
1944
1946
1948
1950
1951
1952
1954
1955
1957
1958
1959
1961
1962
1964
1966
1968
1969
1971
1972
1973
1974
1974
1975
1976
1976
1977
1977
1978
1979
1981
1982
1983
1985
1987
1989
1991
1993
1994
1995
1996
1997
1998
1998
1999
1999
2000
2000
2001
2001
2002
2003
2005
2006
2007
2009
2010
2011
2012
2013
2014
2015
2016
2016
2017
2017
2018
2018
2019
2019
2020
2021
2021
2022
2023
2024
2024
2026
2027
2027
2028
2029
2030
2030
2030
2031
2031
2032
2033
2034
2035
2036
2037
2038
2039
2041
2042
2043
2045
2045
2046
2048
2048
2049
2050
2050
2050
2051
2052
2052
2053
2054
2055
2057
2058
2059
2060
2061
2062
2064
2065
2065
2066
2067
2068
2068
2069
2070
2071
2073
2074
2075
2076
2078
2080
2082
2084
2086
2087
2089
2090
2092
2094
2095
2096
2096
2097
2098
2098
2098
2099
2099
2100
2101
2102
2102
2103
2104
2104
2105
2105
2105
2105
2105
2105
2106
2105
2105
2105
2104
2104
2104
2104
2104
2104
2104
2104
2104
2104
2104
2104
2103
2103
2102
2101
2101
2099
2098
2096
2095
2094
2092
2091
2090
2089
2087
2086
2085
2083
2081
2079
2077
2075
2073
2071
2068
2065
2063
2060
2057
2054
2051
2049
2046
2044
2042
2040
2038
2036
2034
2032
2031
2030
2028
2026
2024
2022
2020
2019
2017
2015
2014
2012
2012
2011
2010
2009
2009
2009
2008
2008
2008
2008
2007
2007
2006
2005
2004
2003
2002
2002
2001
2002
2001
2001
2001
2001
2001
2001
2002
2002
2002
2002
2002
2002
2003
2002
2002
2001
2001
2001
2001
2001
2000
2001
2001
2001
2002
2003
2003
2004
2004
2005
2006
2006
2007
2007
2008
2008
2008
2007
2007
2008
2008
2009
2009
2009
2010
2011
2012
2013
2014
2015
2015
2015
2016
2016
2016
2016
2016
2017
2017
2017
2017
2018
2019
2020
2021
2021
2023
2023
2025
2026
2027
2028
2028
2029
2029
2029
2029
2029
2030
2030
2030
2030
2030
2031
2032
2032
2033
2033
2034
2034
2035
2035
2035
2036
2036
2036
2036
2035
2035
2035
2035
2035
2036
2036
2037
2037
2038
2038
2039
2039
2040
2040
2041
2041
2041
2041
2040
2040
2040
2039
2039
2038
2038
2037
2037
2038
2038
2038
2038
2039
2039
2039
2040
2041
2041
2041
2041
2041
2041
2041
2041
2041
2040
2040
2040
2039
2039
2039
2039
2040
2040
2039
2039
2039
2039
2039
2038
2038
2039
2038
2038
2038
2038
2038
2038
2038
2038
2039
2039
2039
2040
2040
2041
2041
2041
2041
2041
2041
2041
2041
2040
2039
2038
2038
2037
2037
2037
2037
2036
2036
2036
2037
2037
2037
2037
2038
2037
2037
2036
2036
2035
2034
2034
2033
2033
2033
2032
2033
2033
2033
2033
2034
2034
2034
2034
2035
2035
2035
2036
2036
2037
2037
2038
2039
2039
2040
2042
2043
2044
2046
2047
2049
2050
2051
2052
2053
2053
2054
2053
2053
2053
2053
2053
2052
2052
2052
2052
2052
2052
2051
2050
2049
2049
2049
2048
2048
2048
2047
2047
2047
2047
2047
2047
2047
2047
2047
2047
2046
2046
2047
2046
2046
2046
2046
2046
2045
2045
2045
2044
2044
2044
2043
2043
2043
2043
2043
2042
2043
2043
2043
2044
2044
2045
2045
2045
2046
2045
2045
2045
2045
2044
2043
2043
2043
2042
2042
2042
2042
2042
2042
2043
2043
2044
2044
2045
2045
2045
2046
2046
2046
2045
2045
2044
2043
2043
2042
2041
2039
2038
2036
2035
2033
2031
2028
2025
2022
2019
2017
2014
2013
2012
2013
2015
2019
2025
2034
2047
2062
2082
2104
2128
2154
2183
2215
2248
2282
2317
2353
2391
2429
2468
2505
2542
2577
2609
2639
2664
2685
2699
2707
2707
2699
2682
2655
2619
2572
2517
2453
2383
2313
2244
2179
2121
2069
2026
1990
1961
1938
1921
1908
1898
1891
1887
1884
1884
1884
1886
1888
1892
1895
1899
1903
1907
1911
1915
1919
1923
1927
1930
1933
1936
1938
1940
1943
1945
1947
1949
1951
1952
1954
1955
1956
1958
1958
1959
1960
1961
1962
1963
1964
1965
1967
1968
1970
1971
1973
1974
1975
1977
1978
1979
1980
1981
1982
1983
1983
1984
1985
1985
1986
1987
1988
1990
1991
1992
1994
1996
1998
1999
2001
2002
2003
2005
2005
2006
2007
2007
2007
2007
2008
2009
2009
2010
2010
2011
2011
2012
2013
2014
2016
2016
2017
2018
2019
2020
2021
2021
2021
2022
2022
2023
2023
2023
2024
2025
2026
2027
2029
2030
2031
2033
2034
2035
2036
2037
2037
2038
2038
2038
2038
2038
2039
2040
2041
2043
2044
2045
2047
2048
2049
2051
2052
2053
2054
2055
2056
2056
2057
2057
2058
2059
2060
2061
2062
2063
2064
2066
2067
2068
2070
2071
2073
2074
2076
2077
2078
2080
2080
2081
2082
2083
2084
2085
2086
2086
2088
2089
2090
2091
2093
2094
2095
2096
2098
2098
2099
2099
2100
2100
2101
2101
2101
2102
2102
2103
2103
2104
2104
2105
2106
2106
2107
2107
2107
2106
2106
2106
2105
2104
2103
2102
2100
2099
2098
2097
2097
2096
2096
2095
2094
2093
2093
2092
2092
2090
2089
2087
2085
2083
2080
2078
2076
2073
2071
2069
2066
2064
2062
2061
2059
2057
2054
2052
2050
2048
2045
2044
2041
2039
2037
2035
2032
2030
2028
2026
2024
2023
2022
2021
2020
2018
2018
2017
2015
2014
2014
2013
2012
2011
2010
2008
2007
2006
2005
2005
2004
2003
2002
2001
2001
2001
2002
2001
2001
2001
2001
2001
2002
2001
2001
2001
2001
2000
2000
2000
2000
1999
1999
1999
1999
1999
2000
2001
2002
2002
2003
2003
2004
2004
2004
2005
2005
2005
2005
2006
2006
2006
2006
2006
2007
2008
2009
2010
2010
2011
2012
2013
2013
2014
2014
2015
2015
2015
2015
2016
2016
2017
2017
2017
2017
2018
2019
2019
2020
2021
2022
2023
2023
2024
2025
2025
2026
2025
2026
2025
2026
2025
2025
2026
2026
2026
2027
2027
2029
2029
2031
2031
2031
2032
2032
2032
2033
2033
2033
2034
2035
2035
2035
2036
2036
2036
2036
2037
2038
2038
2039
2039
2039
2039
2039
2039
2039
2038
2038
2038
2038
2038
2038
2037
2037
2038
2039
2039
2039
2039
2040
2040
2040
2041
2041
2041
2041
2040
2040
2040
2040
2039
2039
2038
2038
2039
2039
2039
2040
2040
2041
2041
2041
2040
2041
2041
2041
2040
2040
2039
2039
2039
2039
2038
2038
2038
2038
2038
2038
2038
2038
2038
2038
2038
2038
2038
2037
2037
2036
2036
2035
2034
2033
2033
2032
2032
2031
2032
2032
2032
2033
2033
2033
2034
2034
2035
2036
2036
2037
2038
2038
2038
2039
2039
2040
2040
2042
2043
2044
2045
2047
2049
2050
2051
2053
2054
2054
2055
2054
2054
2054
2053
2052
2051
2050
2050
2049
2048
2048
2048
2047
2046
2046
2045
2045
2045
2044
2044
2043
2043
2043
2042
2041
2041
2041
2041
2041
2041
2041
2041
2041
2042
2042
2042
2042
2043
2043
2042
2042
2042
2041
2041
2040
2040
2040
2039
2040
2040
2040
2040
2041
2041
2042
2043
2043
2043
2044
2044
2044
2044
2043
2043
2044
2043
2043
2043
2043
2042
2043
2043
2043
2043
2044
2044
2045
2046
2046
2047
2047
2047
2046
2045
2045
2044
2043
2042
2041
2040
2039
2038
2037
2036
2034
2031
2028
2026
2022
2019
2016
2013
2011
2010
2011
2012
2016
2022
2032
2045
2061
2079
2101
2125
2152
2181
2212
2244
2278
2314
2350
2387
2425
2465
2503
2540
2576
2609
2641
2668
2690
2706
2716
2717
2710
2694
2669
2634
2589
2534
2471
2402
2330
2260
2193
2132
2079
2033
1995
1965
1942
1923
1908
1898
1891
1887
1884
1883
1884
1886
1888
1892
1895
1898
1902
1906
1910
1914
1919
1923
1926
1930
1933
1936
1939
1941
1943
1946
1947
1948
1950
1951
1952
1953
1954
1955
1955
1956
1956
1957
1958
1959
1960
1962
1964
1965
1966
1968
1970
1971
1973
1975
1976
1977
1978
1979
1980
1981
1982
1983
1984
1985
1986
1987
1988
1990
1991
1993
1994
1996
1998
1999
2001
2002
2003
2004
2004
2004
2005
2006
2006
2007
2007
2008
2009
2009
2010
2011
2012
2013
2014
2015
2016
2017
2017
2018
2019
2019
2020
2020
2021
2021
2021
2021
2022
2023
2024
2025
2026
2028
2029
2030
2032
2033
2034
2034
2036
2036
2036
2037
2037
2038
2038
2039
2040
2040
2041
2043
2044
2045
2046
2047
2048
2049
2050
2051
2052
2053
2053
2054
2055
2056
2057
2057
2058
2060
2061
2062
2063
2065
2066
2067
2069
2070
2072
2072
2074
2074
2075
2076
2077
2078
2079
2080
2081
2082
2082
2084
2085
2086
2088
2089
2090
2091
2093
2093
2094
2095
2096
2096
2097
2097
2097
2098
2098
2098
2099
2099
2100
2100
2100
2100
2101
2101
2101
2102
2102
2102
2101
2101
2100
2099
2098
2097
2097
2096
2095
2094
2093
2091
2091
2090
2089
2088
2088
2086
2086
2084
2083
2081
2080
2077
2075
2073
2071
2069
2066
2064
2062
2060
2058
2055
2053
2052
2050
2048
2046
2044
2041
2039
2037
2034
2032
2030
2028
2026
2024
2022
2021
2019
2019
2018
2017
2016
2016
2015
2015
2014
2013
2012
2012
2011
2010
2010
2008
2008
2007
2007
2006
2005
2005
2004
2004
2004
2003
2003
2003
2003
2002
2002
2001
2000
2000
2000
2000
1999
1999
1999
1999
2000
2000
2000
2001
2002
2003
2003
2004
2005
2005
2005
2005
2006
2006
2006
2006
2005
2005
2006
2006
2007
2008
2008
2009
2010
2011
2012
2013
2014
2014
2015
2016
2016
2016
2016
2016
2016
2017
2017
2017
2017
2018
2018
2019
2020
2020
2022
2022
2023
2023
2024
2024
2024
2025
2025
2025
2025
2026
2025
2025
2026
2026
2027
2027
2028
2028
2029
2029
2030
2030
2030
2030
2031
2031
2031
2031
2031
2031
2031
2031
2031
2031
2032
2032
2033
2034
2034
2035
2036
2037
2037
2037
2037
2037
2037
2037
2037
2037
2037
2037
2036
2036
2035
2036
2036
2036
2036
2037
2037
2038
2038
2039
2040
2040
2039
2039
2039
2039
2038
2038
2038
2038
2038
2038
2038
2038
2039
2039
2039
2039
2039
2040
2039
2039
2039
2038
2038
2037
2037
2036
2035
2034
2034
2033
2033
2033
2033
2033
2033
2034
2034
2034
2035
2034
2034
2035
2035
2035
2035
2035
2035
2036
2036
2037
2038
2039
2040
2041
2042
2044
2045
2046
2047
2049
2049
2050
2051
2051
2052
2052
2052
2052
2052
2051
2051
2051
2050
2051
2051
2051
2050
2050
2049
2049
2047
2047
2046
2045
2044
2044
2043
2041
2041
2040
2040
2040
2039
2040
2040
2040
2040
2041
2041
2041
2041
2041
2040
2040
2040
2039
2039
2039
2039
2039
2039
2039
2039
2040
2040
2041
2041
2042
2042
2042
2042
2043
2042
2042
2042
2042
2042
2042
2041
2041
2041
2041
2041
2042
2042
2043
2043
2044
2045
2045
2045
2046
2046
2046
2046
2046
2046
2045
2044
2044
2043
2043
2043
2042
2042
2042
2041
2041
2040
2039
2038
2035
2032
2029
2025
2022
2018
2015
2013
2011
2011
2013
2015
2021
2029
2041
2057
2075
2096
2119
2145
2173
2204
2235
2269
2303
2339
2375
2413
2451
2489
2526
2562
2596
2627
2653
2676
2692
2701
2704
2698
2684
2660
2626
2583
2530
2469
2401
2332
2262
2196
2135
2082
2037
1999
1969
1945
1927
1913
1903
1896
1891
1889
1887
1887
1889
1891
1894
1897
1901
1904
1908
1912
1916
1921
1926
1930
1934
1937
1940
1943
1945
1947
1949
1951
1952
1953
1954
1955
1955
1956
1957
1958
1960
1961
1962
1963
1965
1966
1968
1969
1971
1973
1974
1975
1977
1978
1979
1980
1981
1982
1983
1983
1984
1985
1986
1987
1988
1990
1992
1993
1994
1996
1997
1999
1999
2000
2001
2002
2003
2003
2004
2004
2005
2006
2007
2007
2008
2010
2011
2012
2013
2014
2014
2015
2016
2017
2018
2018
2019
2019
2019
2020
2020
2021
2022
2022
2023
2024
2025
2025
2027
2028
2028
2029
2030
2030
2031
2032
2032
2033
2033
2034
2035
2035
2037
2038
2039
2041
2042
2043
2044
2045
2047
2048
2049
2050
2051
2051
2052
2052
2053
2054
2054
2055
2056
2057
2058
2059
2060
2061
2062
2062
2064
2065
2066
2067
2068
2068
2069
2070
2070
2071
2072
2072
2073
2074
2076
2077
2078
2080
2081
2083
2084
2085
2087
2088
2088
2089
2090
2090
2090
2091
2091
2092
2092
2092
2093
2094
2094
2095
2096
2097
2097
2098
2098
2099
2099
2099
2099
2099
2099
2098
2097
2097
2096
2095
2095
2095
2094
2094
2093
2093
2093
2092
2092
2091
2090
2089
2087
2086
2085
2083
2081
2080
2078
2076
2074
2072
2071
2069
2067
2065
2063
2061
2060
2058
2056
2054
2052
2050
2047
2045
2042
2040
2037
2036
2034
2032
2030
2029
2028
2027
2025
2025
2024
2023
2022
2021
2020
2019
2017
2016
2015
2014
2013
2013
2012
2011
2010
2009
2009
2008
2008
2008
2009
2009
2008
2008
2009
2008
2008
2007
2007
2006
2006
2006
2006
2006
2006
2006
2006
2008
2008
2009
2009
2009
2010
2011
2011
2012
2012
2013
2013
2012
2012
2012
2012
2012
2012
2012
2012
2013
2013
2014
2014
2015
2016
2016
2017
2018
2019
2019
2020
2020
2020
2020
2021
2021
2022
2022
2022
2023
2023
2024
2025
2026
2026
2027
2028
2028
2029
2029
2030
2030
2030
2030
2030
2030
2030
2031
2031
2032
2033
2033
2034
2034
2035
2035
2036
2036
2036
2037
2037
2037
2037
2037
2037
2037
2037
2037
2037
2037
2037
2038
2038
2038
2039
2039
2039
2040
2040
2041
2041
2041
2041
2041
2041
2040
2040
2040
2040
2039
2040
2039
2039
2040
2040
2040
2041
2041
2042
2042
2041
2042
2041
2041
2040
2040
2040
2039
2039
2039
2039
2038
2039
2039
2039
2039
2040
2040
2039
2039
2039
2039
2038
2038
2038
2038
2037
2037
2036
2036
2036
2036
2036
2036
2037
2038
2038
2040
2041
2041
2042
2043
2044
2044
2045
2045
2045
2045
2046
2046
2047
2048
2049
2051
2052
2052
2053
2054
2054
2054
2054
2054
2053
2053
2052
2052
2051
2049
2049
2048
2046
2045
2045
2044
2044
2044
2044
2044
2045
2044
2045
2044
2044
2044
2044
2043
2043
2043
2042
2042
2042
2041
2041
2040
2040
2040
2040
2041
2041
2041
2041
2041
2041
2041
2041
2040
2040
2040
2040
2039
2039
2039
2039
2039
2039
2040
2040
2040
2040
2040
2040
2041
2040
2040
2040
2040
2040
2039
2039
2039
2039
2039
2040
2040
2040
2040
2041
2040
2041
2040
2040
2040
2040
2039
2038
2036
2035
2034
2032
2030
2028
2024
2021
2017
2013
2010
2008
2006
2004
2005
2006
2009
2014
2023
2034
2049
2067
2087
2109
2135
2163
2193
2226
2259
2295
2331
2369
2408
2448
2488
2526
2563
2598
2631
2659
2682
2698
2709
2711
2706
2693
2670
2637
2595
2544
2484
2418
2348
2279
2212
2150
2095
2048
2009
1977
1952
1932
1917
1905
1897
1892
1888
1886
1887
1888
1890
1893
1897
1901
1905
1910
1914
1919
1923
1928
1931
1935
1938
1940
1942
1943
1945
1946
1947
1948
1949
1950
1951
1952
1954
1956
1957
1958
1960
1961
1963
1964
1965
1966
1966
1967
1968
1969
1970
1971
1973
1974
1975
1977
1978
1980
1982
1983
1984
1986
1987
1988
1989
1990
1991
1992
1992
1993
1994
1995
1996
1997
1998
1999
2000
2002
2003
2005
2005
2007
2007
2009
2009
2009
2010
2010
2010
2011
2012
2012
2012
2014
2014
2016
2017
2018
2020
2021
2022
2023
2024
2025
2025
2025
2025
2026
2026
2026
2027
2027
2027
2028
2029
2029
2030
2032
2033
2035
2035
2037
2037
2038
2039
2040
2041
2041
2043
2044
2044
2044
2045
2046
2046
2047
2048
2049
2050
2051
2052
2054
2055
2056
2057
2058
2059
2060
2062
2062
2063
2064
2065
2066
2067
2068
2070
2071
2072
2073
2074
2075
2077
2078
2079
2080
2081
2081
2082
2082
2082
2082
2083
2083
2083
2083
2084
2085
2085
2086
2088
2088
2089
2090
2091
2091
2092
2092
2092
2093
2093
2092
2092
2092
2092
2093
2093
2093
2093
2093
2093
2092
2092
2092
2092
2091
2091
2090
2089
2088
2087
2086
